CH1,CH2,CH3,CH4,CH5,CH6,CH7,CH8,Target
-42265.8,33130.08,-34061.58,-21086.055,0.0,0.0,0.0,0.0,1
-42273.495,33129.585,-34056.9,-21087.045,0.0,0.0,0.0,0.0,1
-42301.53,33133.545,-34069.995,-21075.93,0.0,0.0,0.0,0.0,1
-42314.67,33137.01,-34081.56,-21082.5,0.0,0.0,0.0,0.0,1
-42298.155,33132.825,-34096.77,-21089.565,0.0,0.0,0.0,0.0,1
-42301.305,33128.505,-34094.565,-21088.98,0.0,0.0,0.0,0.0,1
-42322.32,33132.15,-34098.48,-21087.675,0.0,0.0,0.0,0.0,1
-42349.095,33125.625,-34105.59,-21089.43,0.0,0.0,0.0,0.0,1
-42354.54,33122.475,-34102.17,-21084.39,0.0,0.0,0.0,0.0,1
-42328.98,33125.31,-34116.66,-21091.455,0.0,0.0,0.0,0.0,1
-42296.895,33131.295,-34095.735,-21085.605,0.0,0.0,0.0,0.0,1
-42307.2,33132.465,-34091.595,-21082.77,0.0,0.0,0.0,0.0,1
-42302.43,33135.3,-34070.535,-21058.515,0.0,0.0,0.0,0.0,1
-42316.92,33134.895,-34052.355,-21029.445,0.0,0.0,0.0,0.0,1
-42356.43,33137.1,-34092.99,-21057.3,0.0,0.0,0.0,0.0,1
-42350.715,33139.17,-34100.37,-21098.07,0.0,0.0,0.0,0.0,1
-42376.995,33140.745,-34080.525,-21079.53,0.0,0.0,0.0,0.0,1
-42353.775,33135.66,-34071.21,-21066.66,0.0,0.0,0.0,0.0,1
-42283.305,33135.03,-34070.49,-21072.51,0.0,0.0,0.0,0.0,1
-42261.48,33135.885,-34102.665,-21099.51,0.0,0.0,0.0,0.0,1
-42289.065,33135.705,-34109.145,-21102.885,0.0,0.0,0.0,0.0,1
-42300.99,33135.03,-34110.945,-21103.29,0.0,0.0,0.0,0.0,1
-42309.81,33136.695,-34125.48,-21107.385,0.0,0.0,0.0,0.0,1
-42344.73,33133.005,-34127.82,-21098.61,0.0,0.0,0.0,0.0,1
-42384.33,33130.26,-34133.58,-21096.72,0.0,0.0,0.0,0.0,1
-42324.975,33131.43,-34111.035,-21098.79,0.0,0.0,0.0,0.0,1
-42291.765,33132.96,-34082.19,-21087.765,0.0,0.0,0.0,0.0,1
-42302.07,33127.92,-34098.57,-21091.005,0.0,0.0,0.0,0.0,1
-42322.005,33127.83,-34118.055,-21090.33,0.0,0.0,0.0,0.0,1
-42326.595,33127.875,-34113.78,-21080.835,0.0,0.0,0.0,0.0,1
-42267.015,33133.14,-34060.815,-21057.075,0.0,0.0,0.0,0.0,1
-42309.63,33133.68,-34046.73,-21055.455,0.0,0.0,0.0,0.0,1
-42375.33,33131.07,-34077.195,-21069.945,0.0,0.0,0.0,0.0,1
-42350.355,33130.395,-34076.79,-21069.315,0.0,0.0,0.0,0.0,1
-42309.585,33133.77,-34085.565,-21081.015,0.0,0.0,0.0,0.0,1
-42282.765,33135.795,-34100.865,-21095.73,0.0,0.0,0.0,0.0,1
-42322.68,33135.66,-34124.265,-21106.575,0.0,0.0,0.0,0.0,1
-42351.255,33130.215,-34121.34,-21097.71,0.0,0.0,0.0,0.0,1
-42320.52,33128.01,-34103.88,-21084.885,0.0,0.0,0.0,0.0,1
-42311.565,33126.435,-34099.875,-21077.28,0.0,0.0,0.0,0.0,1
-42339.33,33122.385,-34150.23,-21099.555,0.0,0.0,0.0,0.0,1
-42359.04,33120.81,-34171.02,-21118.32,0.0,0.0,0.0,0.0,1
-42381.315,33119.01,-34128.045,-21102.03,0.0,0.0,0.0,0.0,1
-42362.19,33119.73,-34061.49,-21060.18,0.0,0.0,0.0,0.0,1
-42259.725,33121.71,-34042.41,-21051.315,0.0,0.0,0.0,0.0,1
-42282.0,33116.445,-34079.22,-21082.455,0.0,0.0,0.0,0.0,1
-42316.74,33115.32,-34101.405,-21091.185,0.0,0.0,0.0,0.0,1
-42305.445,33108.705,-34108.425,-21094.02,0.0,0.0,0.0,0.0,1
-42302.475,33104.61,-34106.67,-21094.515,0.0,0.0,0.0,0.0,1
-42304.725,33105.555,-34094.43,-21082.005,0.0,0.0,0.0,0.0,1
-42314.76,33101.955,-34101.045,-21093.48,0.0,0.0,0.0,0.0,1
-42307.74,33100.11,-34095.735,-21090.015,0.0,0.0,0.0,0.0,1
-42289.02,33101.01,-34062.165,-21051.135,0.0,0.0,0.0,0.0,1
-42292.665,33100.47,-34065.99,-21048.93,0.0,0.0,0.0,0.0,1
-42315.885,33101.415,-34086.6,-21064.14,0.0,0.0,0.0,0.0,1
-42335.19,33100.875,-34095.33,-21071.43,0.0,0.0,0.0,0.0,1
-42332.67,33104.61,-34084.845,-21071.07,0.0,0.0,0.0,0.0,1
-42314.355,33106.995,-34075.665,-21060.81,0.0,0.0,0.0,0.0,1
-42306.75,33104.115,-34110.18,-21090.15,0.0,0.0,0.0,0.0,1
-42299.055,33102.18,-34110.045,-21087.945,0.0,0.0,0.0,0.0,1
-42289.155,33104.565,-34056.54,-21040.29,0.0,0.0,0.0,0.0,1
-42294.645,33104.7,-34040.565,-21037.68,0.0,0.0,0.0,0.0,1
-42272.82,33106.635,-34049.745,-21046.32,0.0,0.0,0.0,0.0,1
-42325.785,33104.52,-34097.58,-21072.69,0.0,0.0,0.0,0.0,1
-42416.325,33103.17,-34136.55,-21093.345,0.0,0.0,0.0,0.0,1
-42412.77,33104.925,-34118.865,-21092.715,0.0,0.0,0.0,0.0,1
-42375.555,33105.42,-34098.3,-21083.805,0.0,0.0,0.0,0.0,1
-42341.67,33097.365,-34144.875,-21114.36,0.0,0.0,0.0,0.0,1
-42356.295,33088.095,-34174.215,-21120.885,0.0,0.0,0.0,0.0,1
-42354.9,33084.45,-34133.355,-21103.695,0.0,0.0,0.0,0.0,1
-42291.45,33087.96,-34061.805,-21076.29,0.0,0.0,0.0,0.0,1
-42308.415,33086.745,-34080.525,-21071.61,0.0,0.0,0.0,0.0,1
-42325.11,33087.06,-34096.995,-21078.36,0.0,0.0,0.0,0.0,1
-42320.52,33091.695,-34094.07,-21085.02,0.0,0.0,0.0,0.0,1
-42339.825,33092.19,-34099.02,-21083.67,0.0,0.0,0.0,0.0,1
-42353.28,33092.325,-34093.98,-21080.52,0.0,0.0,0.0,0.0,1
-42338.565,33096.78,-34088.4,-21080.745,0.0,0.0,0.0,0.0,1
-42341.715,33093.36,-34093.845,-21079.845,0.0,0.0,0.0,0.0,1
-42340.23,33090.75,-34101.72,-21077.685,0.0,0.0,0.0,0.0,1
-42332.22,33091.695,-34109.775,-21080.655,0.0,0.0,0.0,0.0,1
-42322.32,33094.44,-34102.62,-21078.585,0.0,0.0,0.0,0.0,1
-42337.17,33096.285,-34119.315,-21093.12,0.0,0.0,0.0,0.0,1
-42347.34,33101.64,-34127.82,-21104.505,0.0,0.0,0.0,0.0,1
-42350.895,33104.835,-34129.395,-21106.44,0.0,0.0,0.0,0.0,1
-42351.525,33108.66,-34126.92,-21101.625,0.0,0.0,0.0,0.0,1
-42352.605,33112.485,-34127.37,-21102.075,0.0,0.0,0.0,0.0,1
-42352.83,33116.445,-34127.055,-21105.045,0.0,0.0,0.0,0.0,1
-42360.66,33113.385,-34115.76,-21093.705,0.0,0.0,0.0,0.0,1
-42369.165,33111.945,-34129.125,-21103.515,0.0,0.0,0.0,0.0,1
-42354.9,33112.98,-34132.545,-21110.805,0.0,0.0,0.0,0.0,1
-42344.82,33114.465,-34125.165,-21104.91,0.0,0.0,0.0,0.0,1
-42336.765,33114.6,-34117.245,-21097.35,0.0,0.0,0.0,0.0,1
-42351.975,33116.76,-34118.595,-21096.045,0.0,0.0,0.0,0.0,1
-42368.535,33118.92,-34123.905,-21100.41,0.0,0.0,0.0,0.0,1
-42373.755,33122.88,-34121.97,-21096.045,0.0,0.0,0.0,0.0,1
-42362.73,33124.77,-34116.705,-21089.97,0.0,0.0,0.0,0.0,1
-42363.405,33125.13,-34107.39,-21082.095,0.0,0.0,0.0,0.0,1
-42366.33,33123.33,-34105.455,-21077.595,0.0,0.0,0.0,0.0,1
-42352.065,33124.23,-34116.12,-21093.3,0.0,0.0,0.0,0.0,1
-42352.425,33124.545,-34130.385,-21102.885,0.0,0.0,0.0,0.0,1
-42376.545,33127.245,-34132.005,-21102.3,0.0,0.0,0.0,0.0,1
-42391.215,33130.71,-34118.145,-21096.63,0.0,0.0,0.0,0.0,1
-42417.9,33136.29,-34114.995,-21096.405,0.0,0.0,0.0,0.0,1
-42403.14,33140.745,-34110.675,-21087.18,0.0,0.0,0.0,0.0,1
-42362.685,33144.525,-34128.675,-21102.165,0.0,0.0,0.0,0.0,1
-42338.115,33148.485,-34141.995,-21116.115,0.0,0.0,0.0,0.0,1
-42346.845,33153.345,-34137.495,-21118.455,0.0,0.0,0.0,0.0,1
-42348.87,33153.075,-34123.59,-21110.94,0.0,0.0,0.0,0.0,1
-42371.91,33156.405,-34092.72,-21072.69,0.0,0.0,0.0,0.0,1
-42392.385,33160.545,-34112.385,-21082.005,0.0,0.0,0.0,0.0,1
-42388.56,33166.935,-34149.375,-21122.595,0.0,0.0,0.0,0.0,1
-42400.755,33173.37,-34145.145,-21119.355,0.0,0.0,0.0,0.0,1
-42428.43,33180.705,-34164.855,-21136.005,0.0,0.0,0.0,0.0,1
-42443.46,33189.39,-34171.965,-21145.32,0.0,0.0,0.0,0.0,1
-42456.33,33196.23,-34170.21,-21139.605,0.0,0.0,0.0,0.0,1
-42458.265,33199.515,-34175.07,-21141.72,0.0,0.0,0.0,0.0,1
-42400.53,33203.295,-34175.925,-21157.83,0.0,0.0,0.0,0.0,1
-42374.34,33200.595,-34174.17,-21167.505,0.0,0.0,0.0,0.0,1
-42397.785,33200.19,-34168.59,-21163.95,0.0,0.0,0.0,0.0,1
-42434.01,33203.025,-34177.95,-21163.05,0.0,0.0,0.0,0.0,1
-42438.465,33208.83,-34197.705,-21183.12,0.0,0.0,0.0,0.0,1
-42430.005,33214.095,-34197.39,-21180.195,0.0,0.0,0.0,0.0,1
-42433.38,33220.485,-34204.095,-21180.42,0.0,0.0,0.0,0.0,1
-42435.765,33231.78,-34202.52,-21178.665,0.0,0.0,0.0,0.0,1
-42434.505,33240.78,-34215.57,-21185.775,0.0,0.0,0.0,0.0,1
-42429.915,33241.905,-34210.08,-21186.09,0.0,0.0,0.0,0.0,1
-42441.705,33235.695,-34197.57,-21183.705,0.0,0.0,0.0,0.0,1
-42454.215,33219.72,-34190.46,-21177.945,0.0,0.0,0.0,0.0,1
-42437.07,33207.345,-34186.95,-21179.205,0.0,0.0,0.0,0.0,1
-42436.89,33202.035,-34204.815,-21185.37,0.0,0.0,0.0,0.0,1
-42453.855,33198.255,-34212.645,-21188.07,0.0,0.0,0.0,0.0,1
-42460.695,33192.855,-34208.01,-21183.75,0.0,0.0,0.0,0.0,1
-42471.315,33187.995,-34205.805,-21179.88,0.0,0.0,0.0,0.0,1
-42470.91,33183.225,-34210.305,-21185.19,0.0,0.0,0.0,0.0,1
-42465.555,33182.28,-34204.77,-21183.795,0.0,0.0,0.0,0.0,1
-42463.845,33181.02,-34207.56,-21187.17,0.0,0.0,0.0,0.0,1
-42463.215,33181.515,-34207.515,-21186.405,0.0,0.0,0.0,0.0,1
-42469.29,33175.035,-34208.505,-21183.48,0.0,0.0,0.0,0.0,1
-42454.215,33174.675,-34200.72,-21181.455,0.0,0.0,0.0,0.0,1
-42450.39,33176.925,-34202.295,-21183.255,0.0,0.0,0.0,0.0,1
-42470.145,33177.87,-34207.875,-21185.28,0.0,0.0,0.0,0.0,1
-42471.72,33178.32,-34217.19,-21189.015,0.0,0.0,0.0,0.0,1
-42481.17,33179.265,-34220.115,-21187.845,0.0,0.0,0.0,0.0,1
-42481.35,33179.535,-34215.93,-21186.9,0.0,0.0,0.0,0.0,1
-42454.935,33180.705,-34195.41,-21183.165,0.0,0.0,0.0,0.0,1
-42470.865,33178.77,-34204.365,-21192.21,0.0,0.0,0.0,0.0,1
-42489.72,33177.33,-34217.055,-21190.005,0.0,0.0,0.0,0.0,1
-42482.205,33182.82,-34210.485,-21187.71,0.0,0.0,0.0,0.0,1
-42476.49,33183.855,-34220.115,-21191.94,0.0,0.0,0.0,0.0,1
-42473.88,33181.83,-34220.025,-21188.655,0.0,0.0,0.0,0.0,1
-42488.055,33180.885,-34209.945,-21186.27,0.0,0.0,0.0,0.0,1
-42485.625,33180.795,-34210.17,-21186.855,0.0,0.0,0.0,0.0,1
-42462.99,33181.335,-34221.33,-21193.515,0.0,0.0,0.0,0.0,1
-42444.675,33183.09,-34213.545,-21194.325,0.0,0.0,0.0,0.0,1
-42446.745,33180.525,-34207.245,-21187.395,0.0,0.0,0.0,0.0,1
-42444.315,33177.06,-34204.455,-21180.915,0.0,0.0,0.0,0.0,1
-42446.25,33175.08,-34207.065,-21173.265,0.0,0.0,0.0,0.0,1
-42455.295,33167.52,-34180.74,-21137.445,0.0,0.0,0.0,0.0,1
-42471.405,33162.03,-34178.265,-21154.815,0.0,0.0,0.0,0.0,1
-42501.24,33154.47,-34228.44,-21216.015,0.0,0.0,0.0,0.0,1
-42494.085,33157.62,-34227.63,-21209.895,0.0,0.0,0.0,0.0,1
-42459.75,33158.295,-34207.335,-21193.605,0.0,0.0,0.0,0.0,1
-42446.835,33156.945,-34208.955,-21197.925,0.0,0.0,0.0,0.0,1
-42455.745,33157.035,-34210.125,-21193.515,0.0,0.0,0.0,0.0,1
-42464.34,33158.7,-34190.82,-21174.165,0.0,0.0,0.0,0.0,1
-42458.94,33160.005,-34181.505,-21169.35,0.0,0.0,0.0,0.0,1
-42456.69,33158.835,-34193.745,-21176.73,0.0,0.0,0.0,0.0,1
-42461.28,33151.095,-34210.755,-21189.24,0.0,0.0,0.0,0.0,1
-42469.65,33146.145,-34220.205,-21190.095,0.0,0.0,0.0,0.0,1
-42472.08,33146.19,-34221.87,-21192.525,0.0,0.0,0.0,0.0,1
-42477.12,33147.45,-34207.605,-21184.155,0.0,0.0,0.0,0.0,1
-42443.505,33147.675,-34174.395,-21166.065,0.0,0.0,0.0,0.0,1
-42438.555,33148.89,-34171.695,-21164.22,0.0,0.0,0.0,0.0,1
-42441.84,33149.745,-34186.59,-21170.565,0.0,0.0,0.0,0.0,1
-42437.97,33149.16,-34191.99,-21172.86,0.0,0.0,0.0,0.0,1
-42472.53,33144.48,-34205.04,-21178.89,0.0,0.0,0.0,0.0,1
-42503.265,33143.13,-34212.375,-21183.12,0.0,0.0,0.0,0.0,1
-42494.13,33135.795,-34217.865,-21183.57,0.0,0.0,0.0,0.0,1
-42482.79,33132.06,-34215.255,-21184.155,0.0,0.0,0.0,0.0,1
-42477.48,33129.63,-34205.265,-21184.605,0.0,0.0,0.0,0.0,1
-42481.215,33128.28,-34200.855,-21185.19,0.0,0.0,0.0,0.0,1
-42456.69,33127.065,-34208.955,-21190.14,0.0,0.0,0.0,0.0,1
-42440.58,33125.985,-34190.01,-21178.665,0.0,0.0,0.0,0.0,1
-42463.53,33123.51,-34196.76,-21178.98,0.0,0.0,0.0,0.0,1
-42450.075,33124.635,-34195.005,-21180.735,0.0,0.0,0.0,0.0,1
-42455.115,33124.275,-34196.355,-21175.065,0.0,0.0,0.0,0.0,1
-42465.015,33121.71,-34182.045,-21162.735,0.0,0.0,0.0,0.0,1
-42446.52,33113.97,-34182.405,-21165.93,0.0,0.0,0.0,0.0,1
-42434.325,33112.755,-34188.84,-21175.245,0.0,0.0,0.0,0.0,1
-42435.18,33112.35,-34190.55,-21177.855,0.0,0.0,0.0,0.0,1
-42450.345,33110.415,-34189.515,-21174.03,0.0,0.0,0.0,0.0,1
-42458.445,33106.77,-34188.39,-21168.18,0.0,0.0,0.0,0.0,1
-42481.98,33106.905,-34195.5,-21164.355,0.0,0.0,0.0,0.0,1
-42508.17,33108.345,-34208.775,-21170.52,0.0,0.0,0.0,0.0,1
-42422.265,33112.395,-34166.115,-21164.895,0.0,0.0,0.0,0.0,1
-42396.39,33110.955,-34164.36,-21166.2,0.0,0.0,0.0,0.0,1
-42410.79,33108.75,-34174.17,-21163.815,0.0,0.0,0.0,0.0,1
-42415.83,33101.955,-34176.69,-21164.85,0.0,0.0,0.0,0.0,1
-42428.07,33098.76,-34183.395,-21169.35,0.0,0.0,0.0,0.0,1
-42447.015,33096.24,-34182.045,-21168.45,0.0,0.0,0.0,0.0,1
-42453.855,33096.105,-34184.79,-21170.88,0.0,0.0,0.0,0.0,1
-42463.62,33097.095,-34187.4,-21169.26,0.0,0.0,0.0,0.0,1
-42472.215,33098.805,-34191.855,-21167.73,0.0,0.0,0.0,0.0,1
-42454.53,33098.76,-34200.0,-21175.155,0.0,0.0,0.0,0.0,1
-42445.935,33100.74,-34177.23,-21164.895,0.0,0.0,0.0,0.0,1
-42443.73,33099.48,-34183.53,-21163.905,0.0,0.0,0.0,0.0,1
-42443.955,33099.345,-34179.615,-21156.93,0.0,0.0,0.0,0.0,1
-42437.835,33095.34,-34170.435,-21156.705,0.0,0.0,0.0,0.0,1
-42431.67,33096.375,-34157.79,-21152.7,0.0,0.0,0.0,0.0,1
-42437.565,33097.14,-34174.17,-21160.665,0.0,0.0,0.0,0.0,1
-42440.76,33097.68,-34177.365,-21158.055,0.0,0.0,0.0,0.0,1
-42459.57,33095.385,-34179.75,-21156.345,0.0,0.0,0.0,0.0,1
-42450.075,33091.695,-34175.205,-21161.7,0.0,0.0,0.0,0.0,1
-42414.795,33090.48,-34170.705,-21161.25,0.0,0.0,0.0,0.0,1
-42398.055,33093.36,-34151.175,-21150.045,0.0,0.0,0.0,0.0,1
-42393.69,33093.9,-34161.165,-21161.16,0.0,0.0,0.0,0.0,1
-42433.38,33093.09,-34191.09,-21181.455,0.0,0.0,0.0,0.0,1
-42458.265,33087.735,-34188.885,-21181.815,0.0,0.0,0.0,0.0,1
-42444.9,33088.905,-34175.385,-21171.24,0.0,0.0,0.0,0.0,1
-42438.915,33089.265,-34180.695,-21167.415,0.0,0.0,0.0,0.0,1
-42440.355,33091.29,-34186.905,-21171.96,0.0,0.0,0.0,0.0,1
-42451.92,33092.28,-34186.455,-21171.195,0.0,0.0,0.0,0.0,1
-42434.595,33091.155,-34179.66,-21168.09,0.0,0.0,0.0,0.0,1
-42410.61,33093.09,-34165.395,-21154.32,0.0,0.0,0.0,0.0,1
-42412.05,33096.42,-34162.245,-21148.29,0.0,0.0,0.0,0.0,1
-42450.57,33094.395,-34174.845,-21154.86,0.0,0.0,0.0,0.0,1
-42509.925,33090.795,-34192.755,-21155.805,0.0,0.0,0.0,0.0,1
-42506.955,33082.38,-34191.99,-21155.895,0.0,0.0,0.0,0.0,1
-42427.035,33081.75,-34157.385,-21161.115,0.0,0.0,0.0,0.0,1
-42412.95,33080.265,-34171.74,-21174.885,0.0,0.0,0.0,0.0,1
-42433.65,33079.005,-34182.315,-21173.445,0.0,0.0,0.0,0.0,1
-42435.63,33076.845,-34184.88,-21172.545,0.0,0.0,0.0,0.0,1
-42436.845,33077.25,-34179.255,-21168.855,0.0,0.0,0.0,0.0,1
-42437.835,33077.205,-34178.355,-21163.815,0.0,0.0,0.0,0.0,1
-42439.815,33080.22,-34173.99,-21157.695,0.0,0.0,0.0,0.0,1
-42444.63,33082.245,-34181.37,-21164.355,0.0,0.0,0.0,0.0,1
-42457.23,33080.355,-34183.395,-21165.615,0.0,0.0,0.0,0.0,1
-42428.79,33073.605,-34158.105,-21149.91,0.0,0.0,0.0,0.0,1
-42403.59,33070.995,-34148.79,-21153.06,0.0,0.0,0.0,0.0,1
-42447.06,33067.35,-34181.55,-21168.765,0.0,0.0,0.0,0.0,1
-42449.04,33067.125,-34183.935,-21169.665,0.0,0.0,0.0,0.0,1
-42437.205,33067.305,-34171.38,-21162.24,0.0,0.0,0.0,0.0,1
-42434.415,33067.935,-34168.365,-21159.315,0.0,0.0,0.0,0.0,1
-42443.055,33067.755,-34172.37,-21159.54,0.0,0.0,0.0,0.0,1
-42451.515,33066.63,-34181.19,-21164.355,0.0,0.0,0.0,0.0,1
-42453.36,33065.28,-34179.57,-21160.845,0.0,0.0,0.0,0.0,1
-42468.3,33066.045,-34187.22,-21160.665,0.0,0.0,0.0,0.0,1
-42462.27,33062.94,-34167.285,-21149.19,0.0,0.0,0.0,0.0,1
-42441.84,33062.805,-34159.14,-21150.27,0.0,0.0,0.0,0.0,1
-42404.22,33062.715,-34152.66,-21153.195,0.0,0.0,0.0,0.0,1
-42416.595,33060.825,-34165.935,-21158.82,0.0,0.0,0.0,0.0,1
-42437.295,33058.665,-34172.19,-21160.395,0.0,0.0,0.0,0.0,1
-42444.045,33058.845,-34179.21,-21163.095,0.0,0.0,0.0,0.0,1
-42445.215,33059.16,-34175.16,-21159.945,0.0,0.0,0.0,0.0,1
-42445.44,33059.7,-34172.595,-21157.74,0.0,0.0,0.0,0.0,1
-42436.08,33057.135,-34176.42,-21166.02,0.0,0.0,0.0,0.0,1
-42426.315,33054.57,-34170.705,-21160.89,0.0,0.0,0.0,0.0,1
-42436.08,33048.18,-34171.02,-21155.94,0.0,0.0,0.0,0.0,1
-42444.63,33047.28,-34169.265,-21151.845,0.0,0.0,0.0,0.0,1
-42431.94,33049.17,-34154.235,-21146.895,0.0,0.0,0.0,0.0,1
-42435.135,33047.955,-34166.745,-21154.815,0.0,0.0,0.0,0.0,1
-42435.18,33045.93,-34168.455,-21153.375,0.0,0.0,0.0,0.0,1
-42432.615,33046.245,-34168.77,-21155.49,0.0,0.0,0.0,0.0,1
-42435.495,33044.67,-34172.055,-21154.59,0.0,0.0,0.0,0.0,1
-42439.14,33044.085,-34166.565,-21152.88,0.0,0.0,0.0,0.0,1
-42437.295,33043.23,-34169.13,-21157.38,0.0,0.0,0.0,0.0,1
-42437.205,33040.17,-34178.94,-21164.805,0.0,0.0,0.0,0.0,1
-42418.755,33032.07,-34161.66,-21153.285,0.0,0.0,0.0,0.0,1
-42438.285,33032.61,-34157.745,-21147.795,0.0,0.0,0.0,0.0,1
-42441.345,33034.185,-34173.405,-21163.41,0.0,0.0,0.0,0.0,1
-42433.02,33035.175,-34172.415,-21160.035,0.0,0.0,0.0,0.0,1
-42430.995,33033.735,-34166.925,-21153.195,0.0,0.0,0.0,0.0,1
-42442.875,33032.07,-34173.765,-21151.935,0.0,0.0,0.0,0.0,1
-42454.845,33031.485,-34178.22,-21151.395,0.0,0.0,0.0,0.0,1
-42437.115,33028.245,-34167.42,-21150.315,0.0,0.0,0.0,0.0,1
-42435.09,33023.115,-34174.08,-21158.325,0.0,0.0,0.0,0.0,1
-42449.895,33025.635,-34183.62,-21165.48,0.0,0.0,0.0,0.0,1
-42440.58,33029.415,-34174.035,-21159.72,0.0,0.0,0.0,0.0,1
-42419.43,33030.315,-34159.41,-21152.52,0.0,0.0,0.0,0.0,1
-42402.735,33029.55,-34159.545,-21156.705,0.0,0.0,0.0,0.0,1
-42414.75,33026.355,-34166.79,-21160.26,0.0,0.0,0.0,0.0,1
-42426.495,33023.115,-34164.315,-21156.345,0.0,0.0,0.0,0.0,1
-42445.215,33022.17,-34173.63,-21148.47,0.0,0.0,0.0,0.0,1
-42443.01,33022.53,-34178.535,-21151.665,0.0,0.0,0.0,0.0,1
-42435.99,33024.33,-34169.13,-21149.28,0.0,0.0,0.0,0.0,1
-42447.69,33024.87,-34178.49,-21160.305,0.0,0.0,0.0,0.0,1
-42422.04,33026.76,-34168.365,-21164.13,0.0,0.0,0.0,0.0,1
-42386.58,33021.675,-34136.55,-21143.835,0.0,0.0,0.0,0.0,1
-42396.84,33018.345,-34147.305,-21140.595,0.0,0.0,0.0,0.0,1
-42378.255,33018.93,-34135.29,-21121.605,0.0,0.0,0.0,0.0,1
-42380.46,33018.345,-34144.785,-21141.405,0.0,0.0,0.0,0.0,1
-42417.99,33015.96,-34156.62,-21145.77,0.0,0.0,0.0,0.0,1
-42450.165,33015.555,-34183.89,-21166.74,0.0,0.0,0.0,0.0,1
-42454.53,33015.15,-34186.365,-21167.64,0.0,0.0,0.0,0.0,1
-42441.03,33015.915,-34178.265,-21158.82,0.0,0.0,0.0,0.0,1
-42439.905,33014.115,-34179.93,-21161.43,0.0,0.0,0.0,0.0,1
-42444.945,33012.135,-34164.99,-21150.0,0.0,0.0,0.0,0.0,1
-42439.545,33002.91,-34184.655,-21172.725,0.0,0.0,0.0,0.0,1
-42425.505,33001.38,-34169.895,-21162.825,0.0,0.0,0.0,0.0,1
-42422.49,33001.425,-34158.69,-21151.755,0.0,0.0,0.0,0.0,1
-42429.15,33000.795,-34176.645,-21169.665,0.0,0.0,0.0,0.0,1
-42434.955,32999.76,-34180.425,-21161.07,0.0,0.0,0.0,0.0,1
-42425.235,32998.995,-34187.895,-21172.365,0.0,0.0,0.0,0.0,1
-42420.915,32998.815,-34159.95,-21156.255,0.0,0.0,0.0,0.0,1
-42424.695,33000.93,-34165.575,-21157.56,0.0,0.0,0.0,0.0,1
-42424.515,33000.165,-34175.97,-21162.42,0.0,0.0,0.0,0.0,1
-42450.075,32995.62,-34191.09,-21161.295,0.0,0.0,0.0,0.0,1
-42461.55,32986.44,-34184.745,-21153.375,0.0,0.0,0.0,0.0,1
-42411.825,32988.105,-34172.01,-21155.4,0.0,0.0,0.0,0.0,1
-42395.895,32991.57,-34183.575,-21159.54,0.0,0.0,0.0,0.0,1
-42404.94,32992.245,-34163.955,-21140.595,0.0,0.0,0.0,0.0,1
-42414.93,32991.66,-34152.885,-21143.745,0.0,0.0,0.0,0.0,1
-42434.145,32992.875,-34160.895,-21147.48,0.0,0.0,0.0,0.0,1
-42440.22,32990.76,-34166.745,-21149.64,0.0,0.0,0.0,0.0,1
-42419.43,32993.28,-34172.55,-21160.8,0.0,0.0,0.0,0.0,1
-42403.59,32992.92,-34149.015,-21145.635,0.0,0.0,0.0,0.0,1
-42408.45,32986.8,-34150.815,-21144.06,0.0,0.0,0.0,0.0,1
-42416.415,32975.055,-34167.87,-21153.105,0.0,0.0,0.0,0.0,1
-42429.06,32970.285,-34169.58,-21155.31,0.0,0.0,0.0,0.0,1
-42435.45,32967.36,-34175.475,-21158.595,0.0,0.0,0.0,0.0,1
-42435.36,32961.33,-34173.99,-21154.095,0.0,0.0,0.0,0.0,1
-42429.195,32960.385,-34171.335,-21152.655,0.0,0.0,0.0,0.0,1
-42446.79,32960.745,-34177.005,-21150.765,0.0,0.0,0.0,0.0,1
-42445.71,32959.71,-34187.085,-21154.725,0.0,0.0,0.0,0.0,1
-42424.245,32959.485,-34163.91,-21146.175,0.0,0.0,0.0,0.0,1
-42417.495,32958.09,-34161.48,-21147.255,0.0,0.0,0.0,0.0,1
-42413.76,32960.7,-34168.005,-21154.545,0.0,0.0,0.0,0.0,1
-42413.31,32954.76,-34172.685,-21156.795,0.0,0.0,0.0,0.0,1
-42422.85,32950.17,-34180.47,-21159.765,0.0,0.0,0.0,0.0,1
-42423.93,32948.685,-34171.47,-21153.375,0.0,0.0,0.0,0.0,1
-42427.98,32949.81,-34174.935,-21153.42,0.0,0.0,0.0,0.0,1
-42431.4,32950.17,-34180.065,-21151.935,0.0,0.0,0.0,0.0,1
-42425.595,32950.395,-34175.61,-21152.025,0.0,0.0,0.0,0.0,1
-42413.715,32948.46,-34173.495,-21168.945,0.0,0.0,0.0,0.0,1
-42419.745,32948.775,-34161.39,-21147.03,0.0,0.0,0.0,0.0,1
-42432.93,32945.58,-34184.43,-21162.24,0.0,0.0,0.0,0.0,1
-42432.345,32947.02,-34174.17,-21156.3,0.0,0.0,0.0,0.0,1
-42423.615,32945.67,-34180.02,-21172.545,0.0,0.0,0.0,0.0,1
-42430.455,32946.885,-34187.76,-21172.23,0.0,0.0,0.0,0.0,1
-42442.74,32947.155,-34189.965,-21169.305,0.0,0.0,0.0,0.0,1
-42417.54,32950.935,-34182.945,-21161.745,0.0,0.0,0.0,0.0,1
-42387.75,32955.705,-34156.26,-21144.915,0.0,0.0,0.0,0.0,1
-42362.595,32960.205,-34128.225,-21122.28,0.0,0.0,0.0,0.0,1
-42335.28,32962.275,-34113.42,-21111.165,0.0,0.0,0.0,0.0,1
-42407.145,32961.015,-34144.47,-21132.225,0.0,0.0,0.0,0.0,1
-42458.445,32959.53,-34193.07,-21169.62,0.0,0.0,0.0,0.0,1
-42453.9,32960.43,-34208.415,-21194.055,0.0,0.0,0.0,0.0,1
-42430.995,32955.03,-34189.29,-21186.315,0.0,0.0,0.0,0.0,1
-42418.935,32956.02,-34163.415,-21159.72,0.0,0.0,0.0,0.0,1
-42414.165,32958.585,-34154.01,-21152.025,0.0,0.0,0.0,0.0,1
-42417.855,32957.82,-34152.39,-21150.27,0.0,0.0,0.0,0.0,1
-42410.115,32956.11,-34150.365,-21138.39,0.0,0.0,0.0,0.0,1
-42426.81,32956.74,-34176.87,-21151.665,0.0,0.0,0.0,0.0,1
-42463.26,32955.21,-34203.87,-21165.345,0.0,0.0,0.0,0.0,1
-42473.97,32956.605,-34197.84,-21172.59,0.0,0.0,0.0,0.0,1
-42421.86,32959.755,-34152.435,-21155.67,0.0,0.0,0.0,0.0,1
-42411.195,32959.845,-34159.86,-21151.125,0.0,0.0,0.0,0.0,1
-42410.07,32954.85,-34174.485,-21156.705,0.0,0.0,0.0,0.0,1
-42416.1,32951.07,-34200.585,-21176.55,0.0,0.0,0.0,0.0,1
-42423.075,32950.26,-34199.595,-21182.67,0.0,0.0,0.0,0.0,1
-42427.44,32951.52,-34183.395,-21174.12,0.0,0.0,0.0,0.0,1
-42425.955,32949.945,-34173.045,-21168.405,0.0,0.0,0.0,0.0,1
-42428.295,32950.215,-34180.47,-21171.24,0.0,0.0,0.0,0.0,1
-42417.315,32952.69,-34171.65,-21167.145,0.0,0.0,0.0,0.0,1
-42413.22,32953.185,-34168.41,-21162.96,0.0,0.0,0.0,0.0,1
-42422.805,32951.52,-34178.58,-21166.29,0.0,0.0,0.0,0.0,1
-42437.43,32953.23,-34186.185,-21167.64,0.0,0.0,0.0,0.0,1
-42423.48,32955.255,-34173.405,-21159.945,0.0,0.0,0.0,0.0,1
-42414.66,32955.84,-34172.865,-21158.595,0.0,0.0,0.0,0.0,1
-42416.73,32956.155,-34169.265,-21159.945,0.0,0.0,0.0,0.0,1
-42430.005,32959.89,-34191.045,-21169.575,0.0,0.0,0.0,0.0,1
-42421.005,32963.085,-34185.42,-21171.33,0.0,0.0,0.0,0.0,1
-42417.54,32965.02,-34177.185,-21166.83,0.0,0.0,0.0,0.0,1
-42417.225,32967.315,-34173.36,-21158.955,0.0,0.0,0.0,0.0,1
-42412.86,32969.34,-34170.3,-21158.775,0.0,0.0,0.0,0.0,1
-42408.09,32969.655,-34160.985,-21153.465,0.0,0.0,0.0,0.0,1
-42407.37,32970.42,-34167.51,-21153.96,0.0,0.0,0.0,0.0,1
-42409.305,32967.81,-34177.59,-21164.04,0.0,0.0,0.0,0.0,1
-42414.615,32968.755,-34181.865,-21169.8,0.0,0.0,0.0,0.0,1
-42424.245,32970.735,-34179.345,-21163.77,0.0,0.0,0.0,0.0,1
-42415.695,32973.21,-34188.435,-21168.99,0.0,0.0,0.0,0.0,1
-42413.49,32973.165,-34183.395,-21164.625,0.0,0.0,0.0,0.0,1
-42419.43,32974.605,-34170.255,-21154.59,0.0,0.0,0.0,0.0,1
-42424.29,32972.625,-34175.34,-21163.905,0.0,0.0,0.0,0.0,1
-42408.855,32974.245,-34171.245,-21162.555,0.0,0.0,0.0,0.0,1
-42411.645,32975.46,-34175.565,-21164.805,0.0,0.0,0.0,0.0,1
-42424.515,32977.305,-34191.945,-21168.63,0.0,0.0,0.0,0.0,1
-42425.28,32974.47,-34177.095,-21146.94,0.0,0.0,0.0,0.0,1
-42433.605,32973.435,-34196.715,-21169.35,0.0,0.0,0.0,0.0,1
-42421.68,32975.955,-34194.915,-21180.6,0.0,0.0,0.0,0.0,1
-42415.605,32978.565,-34175.79,-21166.515,0.0,0.0,0.0,0.0,1
-42426.495,32976.99,-34179.39,-21163.635,0.0,0.0,0.0,0.0,1
-42405.255,32977.8,-34174.575,-21173.445,0.0,0.0,0.0,0.0,1
-42393.42,32977.35,-34175.295,-21181.59,0.0,0.0,0.0,0.0,1
-42411.465,32976.045,-34186.59,-21181.59,0.0,0.0,0.0,0.0,1
-42414.12,32975.505,-34185.96,-21178.035,0.0,0.0,0.0,0.0,1
-42415.29,32975.955,-34185.105,-21170.295,0.0,0.0,0.0,0.0,1
-42424.875,32967.72,-34201.53,-21191.94,0.0,0.0,0.0,0.0,1
-42428.52,32965.155,-34191.405,-21185.28,0.0,0.0,0.0,0.0,1
-42419.34,32964.21,-34178.49,-21169.62,0.0,0.0,0.0,0.0,1
-42410.475,32962.905,-34176.465,-21164.085,0.0,0.0,0.0,0.0,1
-42409.395,32959.845,-34190.64,-21174.165,0.0,0.0,0.0,0.0,1
-42416.775,32959.755,-34177.32,-21161.61,0.0,0.0,0.0,0.0,1
-42408.99,32959.26,-34175.43,-21166.605,0.0,0.0,0.0,0.0,1
-42422.715,32959.26,-34188.57,-21173.445,0.0,0.0,0.0,0.0,1
-42436.215,32957.235,-34195.365,-21173.22,0.0,0.0,0.0,0.0,1
-42417.54,32953.635,-34184.565,-21173.355,0.0,0.0,0.0,0.0,1
-42415.11,32952.87,-34184.16,-21169.125,0.0,0.0,0.0,0.0,1
-42435.72,32949.675,-34198.38,-21166.425,0.0,0.0,0.0,0.0,1
-42423.705,32947.605,-34195.14,-21166.695,0.0,0.0,0.0,0.0,1
-42398.64,32948.73,-34173.27,-21172.995,0.0,0.0,0.0,0.0,1
-42395.355,32947.11,-34168.41,-21180.78,0.0,0.0,0.0,0.0,1
-42395.895,32947.92,-34174.89,-21177.54,0.0,0.0,0.0,0.0,1
-42420.375,32945.085,-34195.545,-21173.49,0.0,0.0,0.0,0.0,1
-42420.195,32944.05,-34187.13,-21168.09,0.0,0.0,0.0,0.0,1
-42410.43,32944.14,-34162.74,-21165.615,0.0,0.0,0.0,0.0,1
-42412.14,32938.83,-34145.01,-21163.005,0.0,0.0,0.0,0.0,1
-42397.695,32936.67,-34151.895,-21177.09,0.0,0.0,0.0,0.0,1
-42381.72,32942.475,-34166.745,-21177.315,0.0,0.0,0.0,0.0,1
-42392.88,32947.56,-34167.69,-21169.98,0.0,0.0,0.0,0.0,1
-42410.475,32948.64,-34197.03,-21204.18,0.0,0.0,0.0,0.0,1
-42413.85,32948.82,-34202.34,-21198.825,0.0,0.0,0.0,0.0,1
-42417.405,32952.33,-34201.89,-21178.62,0.0,0.0,0.0,0.0,1
-42436.215,32954.175,-34215.48,-21175.245,0.0,0.0,0.0,0.0,1
-42444.495,32955.975,-34211.07,-21176.955,0.0,0.0,0.0,0.0,1
-42424.335,32957.73,-34186.77,-21175.605,0.0,0.0,0.0,0.0,1
-42404.895,32963.4,-34173.945,-21174.48,0.0,0.0,0.0,0.0,1
-42421.095,32957.82,-34191.405,-21194.64,0.0,0.0,0.0,0.0,1
-42420.69,32953.41,-34189.83,-21190.095,0.0,0.0,0.0,0.0,1
-42395.4,32954.04,-34162.74,-21174.39,0.0,0.0,0.0,0.0,1
-42404.805,32953.5,-34234.065,-21188.07,0.0,0.0,0.0,0.0,1
-42424.155,32953.095,-34281.045,-21203.325,0.0,0.0,0.0,0.0,1
-42403.725,32956.965,-34220.79,-21198.015,0.0,0.0,0.0,0.0,1
-42373.98,32961.78,-34087.635,-21156.93,0.0,0.0,0.0,0.0,1
-42401.565,32962.455,-34110.27,-21147.93,0.0,0.0,0.0,0.0,1
-42419.925,32960.385,-34162.155,-21166.11,0.0,0.0,0.0,0.0,1
-42430.005,32957.955,-34188.3,-21190.905,0.0,0.0,0.0,0.0,1
-42420.24,32953.23,-34171.065,-21175.425,0.0,0.0,0.0,0.0,1
-42410.025,32951.43,-34162.11,-21162.51,0.0,0.0,0.0,0.0,1
-42417.72,32949.72,-34172.415,-21171.195,0.0,0.0,0.0,0.0,1
-42407.46,32951.565,-34189.785,-21191.805,0.0,0.0,0.0,0.0,1
-42402.555,32952.465,-34188.3,-21190.14,0.0,0.0,0.0,0.0,1
-42402.42,32954.58,-34170.12,-21177.135,0.0,0.0,0.0,0.0,1
-42411.24,32955.435,-34188.795,-21192.345,0.0,0.0,0.0,0.0,1
-42413.265,32960.295,-34182.045,-21183.84,0.0,0.0,0.0,0.0,1
-42425.73,32955.75,-34196.76,-21193.47,0.0,0.0,0.0,0.0,1
-42431.58,32950.305,-34196.49,-21191.265,0.0,0.0,0.0,0.0,1
-42428.295,32944.005,-34199.955,-21191.805,0.0,0.0,0.0,0.0,1
-42436.17,32942.745,-34207.02,-21196.53,0.0,0.0,0.0,0.0,1
-42426.54,32944.05,-34184.565,-21184.02,0.0,0.0,0.0,0.0,1
-42421.995,32944.455,-34181.82,-21171.42,0.0,0.0,0.0,0.0,1
-42406.92,32944.32,-34175.34,-21170.61,0.0,0.0,0.0,0.0,1
-42402.915,32946.93,-34187.265,-21192.03,0.0,0.0,0.0,0.0,1
-42413.22,32947.785,-34183.08,-21181.365,0.0,0.0,0.0,0.0,1
-42417.63,32947.785,-34186.14,-21186.045,0.0,0.0,0.0,0.0,1
-42432.345,32946.255,-34193.205,-21187.62,0.0,0.0,0.0,0.0,1
-42438.78,32948.64,-34201.845,-21190.275,0.0,0.0,0.0,0.0,1
-42426.27,32943.285,-34190.145,-21178.215,0.0,0.0,0.0,0.0,1
-42416.595,32942.97,-34181.46,-21176.91,0.0,0.0,0.0,0.0,1
-42416.415,32941.035,-34188.885,-21201.57,0.0,0.0,0.0,0.0,1
-42426.09,32938.245,-34194.465,-21202.56,0.0,0.0,0.0,0.0,1
-42423.39,32934.51,-34187.94,-21188.655,0.0,0.0,0.0,0.0,1
-42431.04,32931.18,-34191.315,-21189.15,0.0,0.0,0.0,0.0,1
-42449.67,32928.345,-34199.37,-21185.19,0.0,0.0,0.0,0.0,1
-42440.175,32927.4,-34186.41,-21183.57,0.0,0.0,0.0,0.0,1
-42410.07,32925.78,-34189.065,-21198.195,0.0,0.0,0.0,0.0,1
-42412.545,32926.455,-34176.06,-21182.49,0.0,0.0,0.0,0.0,1
-42416.775,32920.2,-34194.015,-21201.435,0.0,0.0,0.0,0.0,1
-42425.82,32914.8,-34194.6,-21199.635,0.0,0.0,0.0,0.0,1
-42428.835,32913.63,-34184.88,-21187.17,0.0,0.0,0.0,0.0,1
-42442.56,32916.42,-34193.16,-21186.54,0.0,0.0,0.0,0.0,1
-42440.22,32919.255,-34190.64,-21187.035,0.0,0.0,0.0,0.0,1
-42434.73,32921.505,-34196.895,-21195.81,0.0,0.0,0.0,0.0,1
-42426.81,32922.63,-34196.94,-21197.43,0.0,0.0,0.0,0.0,1
-42426.36,32925.015,-34180.965,-21179.565,0.0,0.0,0.0,0.0,1
-42424.92,32924.97,-34180.155,-21175.02,0.0,0.0,0.0,0.0,1
-42434.505,32930.415,-34205.715,-21194.235,0.0,0.0,0.0,0.0,1
-42431.85,32934.78,-34203.78,-21191.265,0.0,0.0,0.0,0.0,1
-42412.905,32943.06,-34172.955,-21182.04,0.0,0.0,0.0,0.0,1
-42425.055,32946.795,-34157.07,-21172.905,0.0,0.0,0.0,0.0,1
-42436.8,32947.11,-34174.845,-21176.685,0.0,0.0,0.0,0.0,1
-42425.64,32945.76,-34171.74,-21176.415,0.0,0.0,0.0,0.0,1
-42425.28,32946.075,-34175.205,-21177.81,0.0,0.0,0.0,0.0,1
-42431.85,32945.04,-34173.945,-21169.395,0.0,0.0,0.0,0.0,1
-42431.49,32946.345,-34170.84,-21168.36,0.0,0.0,0.0,0.0,1
-42452.82,32946.66,-34202.61,-21199.275,0.0,0.0,0.0,0.0,1
-42446.88,32947.92,-34213.365,-21216.375,0.0,0.0,0.0,0.0,1
-42428.79,32943.33,-34184.88,-21193.695,0.0,0.0,0.0,0.0,1
-42421.23,32936.76,-34172.73,-21181.905,0.0,0.0,0.0,0.0,1
-42430.68,32931.99,-34178.265,-21180.87,0.0,0.0,0.0,0.0,1
-42427.08,32930.685,-34196.895,-21197.97,0.0,0.0,0.0,0.0,1
-42421.545,32929.515,-34188.12,-21186.945,0.0,0.0,0.0,0.0,1
-42427.62,32935.185,-34190.235,-21178.755,0.0,0.0,0.0,0.0,1
-42438.015,32938.245,-34199.055,-21177.63,0.0,0.0,0.0,0.0,1
-42437.88,32936.625,-34192.17,-21177.0,0.0,0.0,0.0,0.0,1
-42418.08,32937.885,-34160.355,-21171.105,0.0,0.0,0.0,0.0,1
-42425.505,32938.065,-34187.895,-21208.59,0.0,0.0,0.0,0.0,1
-42428.565,32939.82,-34181.73,-21196.08,0.0,0.0,0.0,0.0,1
-42439.23,32940.045,-34188.21,-21187.935,0.0,0.0,0.0,0.0,1
-42432.03,32940.675,-34186.995,-21191.715,0.0,0.0,0.0,0.0,1
-42420.69,32943.51,-34180.38,-21190.05,0.0,0.0,0.0,0.0,1
-42424.74,32945.85,-34184.745,-21188.79,0.0,0.0,0.0,0.0,1
-42430.86,32948.91,-34194.33,-21192.255,0.0,0.0,0.0,0.0,1
-42436.305,32956.785,-34192.53,-21179.07,0.0,0.0,0.0,0.0,1
-42438.465,32959.53,-34181.415,-21170.205,0.0,0.0,0.0,0.0,1
-42436.755,32957.46,-34187.355,-21188.565,0.0,0.0,0.0,0.0,1
-42426.81,32955.975,-34178.715,-21180.6,0.0,0.0,0.0,0.0,1
-42425.685,32946.3,-34178.355,-21178.755,0.0,0.0,0.0,0.0,1
-42437.475,32941.26,-34189.29,-21187.35,0.0,0.0,0.0,0.0,1
-42424.515,32939.73,-34187.58,-21186.0,0.0,0.0,0.0,0.0,1
-42425.82,32938.245,-34190.46,-21188.205,0.0,0.0,0.0,0.0,1
-42437.79,32935.95,-34188.795,-21180.06,0.0,0.0,0.0,0.0,1
-42435.99,32935.455,-34194.465,-21176.505,0.0,0.0,0.0,0.0,1
-42430.5,32935.41,-34192.755,-21171.645,0.0,0.0,0.0,0.0,1
-42432.75,32934.24,-34197.705,-21175.245,0.0,0.0,0.0,0.0,1
-42426.27,32932.17,-34188.03,-21190.68,0.0,0.0,0.0,0.0,1
-42411.105,32932.755,-34166.7,-21199.86,0.0,0.0,0.0,0.0,1
-42414.345,32929.875,-34151.13,-21168.405,0.0,0.0,0.0,0.0,1
-42426.09,32930.46,-34157.25,-21159.54,0.0,0.0,0.0,0.0,1
-42433.965,32929.56,-34175.115,-21174.795,0.0,0.0,0.0,0.0,1
-42430.77,32928.255,-34172.82,-21168.54,0.0,0.0,0.0,0.0,1
-42429.375,32926.455,-34178.76,-21167.595,0.0,0.0,0.0,0.0,1
-42448.005,32927.76,-34183.71,-21166.92,0.0,0.0,0.0,0.0,1
-42447.87,32927.67,-34200.405,-21193.65,0.0,0.0,0.0,0.0,1
-42429.33,32929.47,-34180.11,-21181.365,0.0,0.0,0.0,0.0,1
-42418.71,32932.71,-34169.94,-21170.745,0.0,0.0,0.0,0.0,1
-42412.905,32934.915,-34174.53,-21175.2,0.0,0.0,0.0,0.0,1
-42415.29,32934.825,-34173.675,-21177.36,0.0,0.0,0.0,0.0,1
-42418.44,32934.15,-34176.69,-21185.865,0.0,0.0,0.0,0.0,1
-42431.04,32932.575,-34182.855,-21187.125,0.0,0.0,0.0,0.0,1
-42440.94,32931.045,-34196.58,-21187.89,0.0,0.0,0.0,0.0,1
-42451.245,32930.28,-34211.07,-21182.985,0.0,0.0,0.0,0.0,1
-42443.19,32933.925,-34205.445,-21185.37,0.0,0.0,0.0,0.0,1
-42426.99,32934.33,-34174.305,-21178.44,0.0,0.0,0.0,0.0,1
-42422.49,32934.105,-34190.91,-21204.315,0.0,0.0,0.0,0.0,1
-42431.58,32935.725,-34199.19,-21192.39,0.0,0.0,0.0,0.0,1
-42423.795,32938.38,-34193.34,-21190.32,0.0,0.0,0.0,0.0,1
-42418.98,32932.08,-34169.625,-21179.97,0.0,0.0,0.0,0.0,1
-42422.58,32928.93,-34178.355,-21180.465,0.0,0.0,0.0,0.0,1
-42434.865,32926.23,-34193.16,-21177.72,0.0,0.0,0.0,0.0,1
-42422.67,32925.645,-34192.17,-21185.505,0.0,0.0,0.0,0.0,1
-42418.395,32925.645,-34182.18,-21179.52,0.0,0.0,0.0,0.0,1
-42430.185,32928.12,-34203.285,-21193.875,0.0,0.0,0.0,0.0,1
-42429.645,32929.83,-34203.24,-21199.005,0.0,0.0,0.0,0.0,1
-42431.265,32933.52,-34176.465,-21184.425,0.0,0.0,0.0,0.0,1
-42417.315,32935.095,-34155.63,-21157.155,0.0,0.0,0.0,0.0,1
-42419.34,32934.735,-34162.38,-21155.4,0.0,0.0,0.0,0.0,1
-42442.2,32925.735,-34213.095,-21217.95,0.0,0.0,0.0,0.0,1
-42442.875,32922.135,-34211.385,-21196.89,0.0,0.0,0.0,0.0,1
-42429.465,32920.695,-34189.965,-21181.77,0.0,0.0,0.0,0.0,1
-42418.8,32924.385,-34168.005,-21171.15,0.0,0.0,0.0,0.0,1
-42415.47,32924.61,-34156.08,-21169.035,0.0,0.0,0.0,0.0,1
-42427.89,32920.2,-34171.02,-21178.53,0.0,0.0,0.0,0.0,1
-42428.52,32918.31,-34174.89,-21182.49,0.0,0.0,0.0,0.0,1
-42412.005,32919.75,-34165.44,-21171.825,0.0,0.0,0.0,0.0,1
-42415.29,32922.315,-34161.345,-21161.88,0.0,0.0,0.0,0.0,1
-42432.165,32923.98,-34169.85,-21160.845,0.0,0.0,0.0,0.0,1
-42434.505,32923.62,-34192.305,-21198.33,0.0,0.0,0.0,0.0,1
-42446.115,32925.87,-34192.17,-21187.35,0.0,0.0,0.0,0.0,1
-42464.745,32926.41,-34208.595,-21186.495,0.0,0.0,0.0,0.0,1
-42460.92,32930.73,-34206.75,-21193.74,0.0,0.0,0.0,0.0,1
-42414.57,32939.235,-34163.91,-21176.235,0.0,0.0,0.0,0.0,1
-42397.74,32939.685,-34171.065,-21184.245,0.0,0.0,0.0,0.0,1
-42406.065,32938.2,-34179.165,-21187.53,0.0,0.0,0.0,0.0,1
-42416.01,32939.73,-34173.18,-21179.025,0.0,0.0,0.0,0.0,1
-42418.305,32939.955,-34159.185,-21153.78,0.0,0.0,0.0,0.0,1
-42417.0,32938.92,-34168.59,-21161.34,0.0,0.0,0.0,0.0,1
-42416.685,32939.595,-34186.68,-21188.79,0.0,0.0,0.0,0.0,1
-42422.22,32942.97,-34175.745,-21179.205,0.0,0.0,0.0,0.0,1
-42436.035,32943.555,-34189.785,-21189.06,0.0,0.0,0.0,0.0,1
-42427.845,32941.17,-34200.54,-21202.38,0.0,0.0,0.0,0.0,1
-42422.13,32940.81,-34190.505,-21194.46,0.0,0.0,0.0,0.0,1
-42439.455,32942.88,-34184.34,-21178.17,0.0,0.0,0.0,0.0,1
-42444.36,32942.16,-34192.035,-21194.28,0.0,0.0,0.0,0.0,1
-42407.28,32944.86,-34157.34,-21172.005,0.0,0.0,0.0,0.0,1
-42407.73,32944.635,-34164.27,-21169.17,0.0,0.0,0.0,0.0,1
-42420.915,32943.195,-34171.425,-21171.105,0.0,0.0,0.0,0.0,1
-42411.555,32944.005,-34164.18,-21168.36,0.0,0.0,0.0,0.0,1
-42408.675,32944.815,-34161.795,-21166.695,0.0,0.0,0.0,0.0,1
-42419.07,32943.06,-34194.555,-21185.73,0.0,0.0,0.0,0.0,1
-42447.195,32942.61,-34225.875,-21197.34,0.0,0.0,0.0,0.0,1
-42440.445,32943.915,-34208.685,-21197.88,0.0,0.0,0.0,0.0,1
-42398.865,32945.625,-34137.36,-21164.04,0.0,0.0,0.0,0.0,1
-42395.175,32944.365,-34132.275,-21148.83,0.0,0.0,0.0,0.0,1
-42410.97,32940.225,-34163.73,-21168.495,0.0,0.0,0.0,0.0,1
-42414.165,32937.93,-34174.755,-21180.33,0.0,0.0,0.0,0.0,1
-42413.355,32934.735,-34175.25,-21182.715,0.0,0.0,0.0,0.0,1
-42416.82,32926.455,-34174.44,-21174.57,0.0,0.0,0.0,0.0,1
-42420.105,32925.375,-34179.03,-21175.785,0.0,0.0,0.0,0.0,1
-42422.355,32924.79,-34172.19,-21158.64,0.0,0.0,0.0,0.0,1
-42434.37,32923.845,-34189.515,-21168.09,0.0,0.0,0.0,0.0,1
-42438.285,32921.865,-34201.26,-21188.115,0.0,0.0,0.0,0.0,1
-42415.29,32925.15,-34186.815,-21180.195,0.0,0.0,0.0,0.0,1
-42412.545,32925.645,-34175.43,-21180.735,0.0,0.0,0.0,0.0,1
-42408.405,32926.725,-34165.17,-21187.62,0.0,0.0,0.0,0.0,1
-42399.72,32926.23,-34159.725,-21194.505,0.0,0.0,0.0,0.0,1
-42405.615,32925.015,-34157.025,-21194.91,0.0,0.0,0.0,0.0,1
-42407.505,32917.455,-34158.825,-21184.38,0.0,0.0,0.0,0.0,1
-42415.92,32917.005,-34171.605,-21170.88,0.0,0.0,0.0,0.0,1
-42428.655,32918.67,-34184.205,-21162.96,0.0,0.0,0.0,0.0,1
-42427.215,32917.77,-34185.195,-21173.265,0.0,0.0,0.0,0.0,1
-42416.055,32916.555,-34179.165,-21201.345,0.0,0.0,0.0,0.0,1
-42418.665,32918.31,-34167.015,-21188.07,0.0,0.0,0.0,0.0,1
-42415.605,32918.4,-34171.56,-21166.29,0.0,0.0,0.0,0.0,1
-42441.345,32915.43,-34254.09,-21177.72,0.0,0.0,0.0,0.0,1
-42468.48,32910.885,-34306.92,-21204.54,0.0,0.0,0.0,0.0,1
-42442.29,32910.705,-34243.695,-21192.66,0.0,0.0,0.0,0.0,1
-42368.76,32912.82,-34099.29,-21145.77,0.0,0.0,0.0,0.0,1
-42371.055,32912.28,-34067.835,-21144.42,0.0,0.0,0.0,0.0,1
-42387.255,32909.445,-34110.27,-21160.845,0.0,0.0,0.0,0.0,1
-42399.27,32907.78,-34136.775,-21163.095,0.0,0.0,0.0,0.0,1
-42400.845,32907.42,-34158.33,-21169.98,0.0,0.0,0.0,0.0,1
-42396.39,32909.31,-34151.535,-21161.79,0.0,0.0,0.0,0.0,1
-42403.59,32908.59,-34160.58,-21171.915,0.0,0.0,0.0,0.0,1
-42409.035,32907.285,-34166.61,-21171.645,0.0,0.0,0.0,0.0,1
-42410.25,32906.97,-34170.48,-21163.815,0.0,0.0,0.0,0.0,1
-42418.125,32907.78,-34162.425,-21150.225,0.0,0.0,0.0,0.0,1
-42420.87,32902.425,-34182.18,-21198.33,0.0,0.0,0.0,0.0,1
-42408.27,32902.785,-34168.725,-21188.385,0.0,0.0,0.0,0.0,1
-42403.905,32904.135,-34168.275,-21177.18,0.0,0.0,0.0,0.0,1
-42396.21,32904.405,-34166.925,-21169.98,0.0,0.0,0.0,0.0,1
-42405.75,32902.74,-34175.565,-21168.855,0.0,0.0,0.0,0.0,1
-42409.35,32905.305,-34174.665,-21174.93,0.0,0.0,0.0,0.0,1
-42411.78,32904.675,-34161.795,-21158.145,0.0,0.0,0.0,0.0,1
-42414.615,32904.27,-34150.5,-21142.71,0.0,0.0,0.0,0.0,1
-42411.24,32905.305,-34155.315,-21158.505,0.0,0.0,0.0,0.0,1
-42398.415,32906.61,-34150.005,-21156.795,0.0,0.0,0.0,0.0,1
-42410.925,32898.735,-34180.965,-21179.25,0.0,0.0,0.0,0.0,1
-42415.29,32895.63,-34186.905,-21193.74,0.0,0.0,0.0,0.0,1
-42412.59,32897.025,-34170.255,-21173.31,0.0,0.0,0.0,0.0,1
-42418.98,32896.755,-34174.44,-21170.79,0.0,0.0,0.0,0.0,1
-42412.005,32897.385,-34159.815,-21159.09,0.0,0.0,0.0,0.0,1
-42404.13,32894.685,-34167.915,-21160.98,0.0,0.0,0.0,0.0,1
-42397.56,32891.355,-34169.715,-21155.13,0.0,0.0,0.0,0.0,1
-42402.06,32891.895,-34148.52,-21128.715,0.0,0.0,0.0,0.0,1
-42414.12,32890.275,-34159.59,-21176.1,0.0,0.0,0.0,0.0,1
-42418.98,32890.23,-34165.98,-21186.45,0.0,0.0,0.0,0.0,1
-42412.275,32884.2,-34183.215,-21179.07,0.0,0.0,0.0,0.0,1
-42417.99,32882.58,-34179.615,-21171.51,0.0,0.0,0.0,0.0,1
-42426.855,32884.785,-34175.16,-21160.62,0.0,0.0,0.0,0.0,1
-42411.015,32890.095,-34163.19,-21156.3,0.0,0.0,0.0,0.0,1
-42393.6,32895.36,-34172.64,-21184.56,0.0,0.0,0.0,0.0,1
-42391.665,32897.205,-34167.06,-21172.635,0.0,0.0,0.0,0.0,1
-42403.41,32895.135,-34182.18,-21176.37,0.0,0.0,0.0,0.0,1
-42406.56,32894.37,-34175.475,-21183.57,0.0,0.0,0.0,0.0,1
-42412.41,32892.705,-34170.39,-21175.065,0.0,0.0,0.0,0.0,1
-42420.42,32889.33,-34189.515,-21174.48,0.0,0.0,0.0,0.0,1
-42421.005,32884.065,-34212.825,-21184.56,0.0,0.0,0.0,0.0,1
-42415.47,32880.33,-34215.165,-21204.54,0.0,0.0,0.0,0.0,1
-42394.14,32882.805,-34158.105,-21170.655,0.0,0.0,0.0,0.0,1
-42407.91,32884.695,-34158.015,-21158.28,0.0,0.0,0.0,0.0,1
-42401.745,32887.8,-34157.295,-21150.405,0.0,0.0,0.0,0.0,1
-42396.255,32890.455,-34137.855,-21152.61,0.0,0.0,0.0,0.0,1
-42400.845,32890.815,-34139.565,-21144.87,0.0,0.0,0.0,0.0,1
-42401.115,32887.8,-34158.42,-21168.945,0.0,0.0,0.0,0.0,1
-42411.645,32885.505,-34183.395,-21190.77,0.0,0.0,0.0,0.0,1
-42425.28,32887.17,-34170.255,-21177.315,0.0,0.0,0.0,0.0,1
-42402.195,32887.17,-34138.845,-21159.81,0.0,0.0,0.0,0.0,1
-42388.92,32887.17,-34166.115,-21187.845,0.0,0.0,0.0,0.0,1
-42408.405,32886.27,-34183.395,-21195.27,0.0,0.0,0.0,0.0,1
-42403.995,32888.16,-34162.605,-21165.975,0.0,0.0,0.0,0.0,1
-42400.35,32890.725,-34153.92,-21145.23,0.0,0.0,0.0,0.0,1
-42404.04,32888.88,-34164.27,-21150.315,0.0,0.0,0.0,0.0,1
-42411.915,32885.145,-34177.185,-21155.895,0.0,0.0,0.0,0.0,1
-42421.635,32887.035,-34190.91,-21152.79,0.0,0.0,0.0,0.0,1
-42412.23,32887.845,-34203.285,-21165.345,0.0,0.0,0.0,0.0,1
-42411.285,32886.135,-34187.355,-21178.845,0.0,0.0,0.0,0.0,1
-42394.905,32882.985,-34142.895,-21168.27,0.0,0.0,0.0,0.0,1
-42388.875,32882.535,-34151.265,-21173.76,0.0,0.0,0.0,0.0,1
-42395.445,32881.59,-34158.33,-21155.49,0.0,0.0,0.0,0.0,1
-42398.01,32881.05,-34153.155,-21154.77,0.0,0.0,0.0,0.0,1
-42402.78,32876.82,-34169.355,-21168.9,0.0,0.0,0.0,0.0,1
-42400.215,32877.45,-34180.11,-21173.67,0.0,0.0,0.0,0.0,1
-42389.685,32883.615,-34169.535,-21165.255,0.0,0.0,0.0,0.0,1
-42397.065,32886.045,-34177.815,-21167.505,0.0,0.0,0.0,0.0,1
-42414.12,32886.09,-34190.955,-21176.19,0.0,0.0,0.0,0.0,1
-42407.415,32887.8,-34177.68,-21170.925,0.0,0.0,0.0,0.0,1
-42400.845,32883.435,-34157.61,-21152.79,0.0,0.0,0.0,0.0,1
-42410.43,32880.51,-34181.415,-21176.82,0.0,0.0,0.0,0.0,1
-42398.685,32880.24,-34172.415,-21189.645,0.0,0.0,0.0,0.0,1
-42377.94,32882.04,-34149.42,-21174.03,0.0,0.0,0.0,0.0,1
-42381.36,32882.895,-34149.24,-21154.455,0.0,0.0,0.0,0.0,1
-42404.22,32881.635,-34182.9,-21168.135,0.0,0.0,0.0,0.0,1
-42404.76,32882.175,-34189.47,-21180.33,0.0,0.0,0.0,0.0,1
-42397.29,32887.53,-34173.495,-21170.655,0.0,0.0,0.0,0.0,1
-42399.765,32888.745,-34170.39,-21164.49,0.0,0.0,0.0,0.0,1
-42396.84,32887.71,-34170.615,-21162.96,0.0,0.0,0.0,0.0,1
-42413.4,32880.51,-34180.92,-21163.68,0.0,0.0,0.0,0.0,1
-42415.83,32878.98,-34178.445,-21164.4,0.0,0.0,0.0,0.0,1
-42384.87,32882.175,-34154.055,-21147.03,0.0,0.0,0.0,0.0,1
-42386.13,32878.53,-34160.085,-21144.78,0.0,0.0,0.0,0.0,1
-42397.92,32872.86,-34171.245,-21164.445,0.0,0.0,0.0,0.0,1
-42400.89,32871.915,-34172.82,-21159.675,0.0,0.0,0.0,0.0,1
-42404.4,32873.58,-34169.94,-21150.45,0.0,0.0,0.0,0.0,1
-42401.07,32874.57,-34176.915,-21173.67,0.0,0.0,0.0,0.0,1
-42409.89,32874.075,-34190.01,-21171.87,0.0,0.0,0.0,0.0,1
-42414.255,32873.805,-34206.12,-21172.815,0.0,0.0,0.0,0.0,1
-42393.6,32869.35,-34192.98,-21164.49,0.0,0.0,0.0,0.0,1
-42379.785,32870.43,-34150.59,-21150.315,0.0,0.0,0.0,0.0,1
-42373.71,32872.23,-34130.925,-21146.13,0.0,0.0,0.0,0.0,1
-42384.96,32874.975,-34160.175,-21159.0,0.0,0.0,0.0,0.0,1
-42387.03,32877.36,-34169.895,-21160.575,0.0,0.0,0.0,0.0,1
-42394.545,32880.015,-34170.66,-21174.93,0.0,0.0,0.0,0.0,1
-42397.785,32881.995,-34162.515,-21166.335,0.0,0.0,0.0,0.0,1
-42395.445,32884.92,-34161.12,-21159.405,0.0,0.0,0.0,0.0,1
-42393.69,32886.45,-34162.245,-21159.27,0.0,0.0,0.0,0.0,1
-42384.33,32888.61,-34160.49,-21157.47,0.0,0.0,0.0,0.0,1
-42364.26,32890.905,-34132.995,-21135.78,0.0,0.0,0.0,0.0,1
-42390.315,32889.06,-34148.115,-21139.92,0.0,0.0,0.0,0.0,1
-42413.31,32887.665,-34184.52,-21178.53,0.0,0.0,0.0,0.0,1
-42396.12,32893.425,-34179.39,-21182.445,0.0,0.0,0.0,0.0,1
-42410.79,32894.46,-34191.315,-21188.88,0.0,0.0,0.0,0.0,1
-42405.57,32895.27,-34190.28,-21189.6,0.0,0.0,0.0,0.0,1
-42378.57,32895.045,-34170.795,-21161.25,0.0,0.0,0.0,0.0,1
-42369.615,32893.695,-34163.19,-21153.33,0.0,0.0,0.0,0.0,1
-42383.295,32893.11,-34177.32,-21184.38,0.0,0.0,0.0,0.0,1
-42385.86,32897.655,-34184.745,-21186.27,0.0,0.0,0.0,0.0,1
-42394.905,32895.36,-34187.49,-21171.69,0.0,0.0,0.0,0.0,1
-42398.64,32894.28,-34206.57,-21169.17,0.0,0.0,0.0,0.0,1
-42424.29,32894.145,-34240.995,-21203.28,0.0,0.0,0.0,0.0,1
-42414.84,32899.455,-34183.62,-21157.335,0.0,0.0,0.0,0.0,1
-42356.43,32903.865,-34126.245,-21153.42,0.0,0.0,0.0,0.0,1
-42367.68,32903.82,-34142.49,-21160.98,0.0,0.0,0.0,0.0,1
-42382.98,32902.605,-34162.245,-21159.315,0.0,0.0,0.0,0.0,1
-42381.945,32904.225,-34160.49,-21154.68,0.0,0.0,0.0,0.0,1
-42379.695,32904.72,-34175.97,-21164.805,0.0,0.0,0.0,0.0,1
-42378.39,32907.105,-34182.855,-21168.945,0.0,0.0,0.0,0.0,1
-42382.035,32901.165,-34175.745,-21161.07,0.0,0.0,0.0,0.0,1
-42378.12,32899.185,-34171.065,-21158.37,0.0,0.0,0.0,0.0,1
-42379.02,32900.58,-34167.375,-21166.65,0.0,0.0,0.0,0.0,1
-42384.78,32899.23,-34177.5,-21177.045,0.0,0.0,0.0,0.0,1
-42365.16,32900.04,-34166.97,-21170.295,0.0,0.0,0.0,0.0,1
-42370.875,32902.155,-34165.395,-21163.77,0.0,0.0,0.0,0.0,1
-42376.905,32902.335,-34159.185,-21151.395,0.0,0.0,0.0,0.0,1
-42368.22,32900.67,-34161.84,-21150.72,0.0,0.0,0.0,0.0,1
-42360.795,32899.68,-34181.01,-21176.685,0.0,0.0,0.0,0.0,1
-42397.695,32899.005,-34207.47,-21171.465,0.0,0.0,0.0,0.0,1
-42411.42,32894.37,-34202.565,-21167.055,0.0,0.0,0.0,0.0,1
-42383.025,32898.06,-34172.19,-21167.64,0.0,0.0,0.0,0.0,1
-42353.28,32899.995,-34162.875,-21177.045,0.0,0.0,0.0,0.0,1
-42357.105,32900.445,-34154.055,-21169.17,0.0,0.0,0.0,0.0,1
-42366.195,32901.705,-34147.755,-21146.265,0.0,0.0,0.0,0.0,1
-42364.08,32902.83,-34154.235,-21144.465,0.0,0.0,0.0,0.0,1
-42374.925,32903.19,-34164.135,-21155.49,0.0,0.0,0.0,0.0,1
-42368.94,32905.575,-34168.365,-21178.89,0.0,0.0,0.0,0.0,1
-42374.475,32906.52,-34201.62,-21186.09,0.0,0.0,0.0,0.0,1
-42388.29,32902.92,-34214.94,-21194.685,0.0,0.0,0.0,0.0,1
-42392.385,32894.595,-34204.59,-21191.67,0.0,0.0,0.0,0.0,1
-42380.55,32894.91,-34165.665,-21172.5,0.0,0.0,0.0,0.0,1
-42382.305,32895.36,-34145.595,-21144.645,0.0,0.0,0.0,0.0,1
-42372.405,32892.885,-34156.305,-21153.015,0.0,0.0,0.0,0.0,1
-42367.95,32892.435,-34166.295,-21183.66,0.0,0.0,0.0,0.0,1
-42369.48,32895.045,-34168.32,-21183.57,0.0,0.0,0.0,0.0,1
-42369.435,32895.72,-34154.91,-21163.005,0.0,0.0,0.0,0.0,1
-42373.62,32896.395,-34152.615,-21150.36,0.0,0.0,0.0,0.0,1
-42379.2,32896.89,-34182.99,-21178.845,0.0,0.0,0.0,0.0,1
-42376.815,32896.305,-34179.705,-21163.905,0.0,0.0,0.0,0.0,1
-42376.005,32890.23,-34178.715,-21171.195,0.0,0.0,0.0,0.0,1
-42376.23,32889.51,-34172.955,-21167.055,0.0,0.0,0.0,0.0,1
-42376.5,32888.835,-34159.455,-21152.97,0.0,0.0,0.0,0.0,1
-42370.065,32887.26,-34161.66,-21159.405,0.0,0.0,0.0,0.0,1
-42371.28,32884.47,-34180.695,-21175.56,0.0,0.0,0.0,0.0,1
-42385.275,32883.075,-34187.265,-21173.085,0.0,0.0,0.0,0.0,1
-42390.45,32881.995,-34184.43,-21163.995,0.0,0.0,0.0,0.0,1
-42384.78,32883.03,-34181.235,-21160.89,0.0,0.0,0.0,0.0,1
-42351.39,32882.175,-34170.255,-21180.78,0.0,0.0,0.0,0.0,1
-42353.28,32878.89,-34161.435,-21168.135,0.0,0.0,0.0,0.0,1
-42367.545,32869.17,-34154.145,-21154.14,0.0,0.0,0.0,0.0,1
-42378.39,32864.355,-34165.935,-21157.38,0.0,0.0,0.0,0.0,1
-42369.84,32862.555,-34170.84,-21171.015,0.0,0.0,0.0,0.0,1
-42370.38,32861.655,-34167.825,-21162.735,0.0,0.0,0.0,0.0,1
-42378.525,32859.54,-34179.03,-21178.17,0.0,0.0,0.0,0.0,1
-42375.465,32858.325,-34168.905,-21174.525,0.0,0.0,0.0,0.0,1
-42375.465,32856.75,-34171.47,-21166.02,0.0,0.0,0.0,0.0,1
-42375.195,32858.685,-34173.675,-21166.56,0.0,0.0,0.0,0.0,1
-42370.29,32858.91,-34179.435,-21177.09,0.0,0.0,0.0,0.0,1
-42371.415,32859.405,-34179.12,-21171.465,0.0,0.0,0.0,0.0,1
-42381.09,32861.61,-34180.47,-21165.705,0.0,0.0,0.0,0.0,1
-42377.985,32863.905,-34192.17,-21185.505,0.0,0.0,0.0,0.0,1
-42383.79,32864.31,-34189.56,-21168.54,0.0,0.0,0.0,0.0,1
-42393.33,32863.995,-34195.725,-21170.295,0.0,0.0,0.0,0.0,1
-42378.615,32865.075,-34170.48,-21172.14,0.0,0.0,0.0,0.0,1
-42358.545,32870.025,-34163.685,-21174.12,0.0,0.0,0.0,0.0,1
-42356.97,32873.22,-34165.395,-21172.725,0.0,0.0,0.0,0.0,1
-42357.33,32874.75,-34163.595,-21169.17,0.0,0.0,0.0,0.0,1
-42363.135,32875.38,-34154.145,-21165.48,0.0,0.0,0.0,0.0,1
-42372.315,32877.45,-34156.125,-21159.09,0.0,0.0,0.0,0.0,1
-42369.57,32872.77,-34167.24,-21164.67,0.0,0.0,0.0,0.0,1
-42372.54,32871.42,-34172.055,-21154.77,0.0,0.0,0.0,0.0,1
-42372.09,32873.445,-34175.52,-21146.04,0.0,0.0,0.0,0.0,1
-42370.56,32875.515,-34173.225,-21165.12,0.0,0.0,0.0,0.0,1
-42372.0,32874.795,-34165.215,-21181.68,0.0,0.0,0.0,0.0,1
-42386.895,32873.265,-34179.03,-21173.49,0.0,0.0,0.0,0.0,1
-42395.67,32868.765,-34208.64,-21204.54,0.0,0.0,0.0,0.0,1
-42369.21,32868.63,-34177.14,-21189.78,0.0,0.0,0.0,0.0,1
-42347.97,32869.575,-34158.105,-21176.595,0.0,0.0,0.0,0.0,1
-42365.295,32868.72,-34189.11,-21190.005,0.0,0.0,0.0,0.0,1
-42382.26,32861.97,-34201.845,-21183.345,0.0,0.0,0.0,0.0,1
-42389.415,32863.095,-34182.63,-21168.36,0.0,0.0,0.0,0.0,1
-42376.995,32864.355,-34170.75,-21164.67,0.0,0.0,0.0,0.0,1
-42367.23,32866.605,-34169.76,-21170.07,0.0,0.0,0.0,0.0,1
-42360.03,32868.495,-34158.015,-21167.865,0.0,0.0,0.0,0.0,1
-42364.44,32870.295,-34152.615,-21162.33,0.0,0.0,0.0,0.0,1
-42369.075,32873.085,-34167.51,-21170.205,0.0,0.0,0.0,0.0,1
-42369.39,32876.01,-34176.825,-21171.69,0.0,0.0,0.0,0.0,1
-42373.53,32877.18,-34172.415,-21157.65,0.0,0.0,0.0,0.0,1
-42376.68,32877.315,-34165.89,-21149.46,0.0,0.0,0.0,0.0,1
-42380.55,32878.71,-34184.97,-21177.945,0.0,0.0,0.0,0.0,1
-42383.97,32882.625,-34197.795,-21182.58,0.0,0.0,0.0,0.0,1
-42385.14,32884.29,-34215.57,-21192.255,0.0,0.0,0.0,0.0,1
-42382.665,32881.77,-34208.415,-21189.915,0.0,0.0,0.0,0.0,1
-42359.22,32878.305,-34150.77,-21171.735,0.0,0.0,0.0,0.0,1
-42372.945,32877.99,-34143.435,-21158.01,0.0,0.0,0.0,0.0,1
-42381.495,32877.495,-34172.145,-21165.885,0.0,0.0,0.0,0.0,1
-42370.02,32876.145,-34161.93,-21159.99,0.0,0.0,0.0,0.0,1
-42370.245,32874.615,-34161.3,-21167.955,0.0,0.0,0.0,0.0,1
-42369.795,32878.44,-34179.255,-21186.18,0.0,0.0,0.0,0.0,1
-42381.09,32875.11,-34190.145,-21187.215,0.0,0.0,0.0,0.0,1
-42381.99,32876.685,-34177.41,-21172.095,0.0,0.0,0.0,0.0,1
-42368.805,32878.665,-34171.515,-21168.495,0.0,0.0,0.0,0.0,1
-42380.505,32879.07,-34186.005,-21183.03,0.0,0.0,0.0,0.0,1
-42380.82,32881.275,-34169.22,-21163.725,0.0,0.0,0.0,0.0,1
-42381.9,32886.945,-34179.57,-21177.72,0.0,0.0,0.0,0.0,1
-42389.955,32889.6,-34193.79,-21189.915,0.0,0.0,0.0,0.0,1
-42376.5,32894.01,-34202.385,-21204.18,0.0,0.0,0.0,0.0,1
-42376.68,32897.115,-34190.01,-21185.595,0.0,0.0,0.0,0.0,1
-42395.085,32896.575,-34196.985,-21166.695,0.0,0.0,0.0,0.0,1
-42403.185,32891.67,-34200.54,-21157.38,0.0,0.0,0.0,0.0,1
-42358.995,32896.08,-34166.565,-21167.595,0.0,0.0,0.0,0.0,1
-42354.675,32898.555,-34164.585,-21193.38,0.0,0.0,0.0,0.0,1
-42372.09,32896.62,-34172.19,-21185.64,0.0,0.0,0.0,0.0,1
-42373.755,32894.325,-34177.815,-21183.795,0.0,0.0,0.0,0.0,1
-42372.945,32896.035,-34180.515,-21189.87,0.0,0.0,0.0,0.0,1
-42367.77,32898.33,-34175.565,-21189.735,0.0,0.0,0.0,0.0,1
-42376.95,32899.455,-34190.28,-21181.365,0.0,0.0,0.0,0.0,1
-42383.34,32901.21,-34201.395,-21176.64,0.0,0.0,0.0,0.0,1
-42383.925,32904.855,-34210.89,-21183.39,0.0,0.0,0.0,0.0,1
-42393.24,32903.01,-34213.365,-21192.525,0.0,0.0,0.0,0.0,1
-42383.655,32903.91,-34190.28,-21195.72,0.0,0.0,0.0,0.0,1
-42378.705,32905.71,-34145.82,-21161.745,0.0,0.0,0.0,0.0,1
-42371.73,32909.22,-34146.315,-21154.635,0.0,0.0,0.0,0.0,1
-42369.57,32909.805,-34165.17,-21168.945,0.0,0.0,0.0,0.0,1
-42375.24,32911.335,-34174.755,-21171.33,0.0,0.0,0.0,0.0,1
-42372.945,32914.62,-34169.805,-21165.12,0.0,0.0,0.0,0.0,1
-42375.15,32919.57,-34176.195,-21173.94,0.0,0.0,0.0,0.0,1
-42379.425,32920.65,-34183.08,-21186.54,0.0,0.0,0.0,0.0,1
-42382.44,32921.91,-34183.395,-21181.23,0.0,0.0,0.0,0.0,1
-42381.495,32920.92,-34189.38,-21184.155,0.0,0.0,0.0,0.0,1
-42389.325,32918.355,-34186.455,-21179.34,0.0,0.0,0.0,0.0,1
-42388.47,32920.11,-34175.61,-21163.23,0.0,0.0,0.0,0.0,1
-42394.995,32919.795,-34184.34,-21172.995,0.0,0.0,0.0,0.0,1
-42397.605,32917.545,-34184.34,-21171.51,0.0,0.0,0.0,0.0,1
-42362.865,32912.505,-34169.805,-21173.22,0.0,0.0,0.0,0.0,1
-42364.17,32907.825,-34179.525,-21184.605,0.0,0.0,0.0,0.0,1
-42379.965,32906.52,-34181.595,-21178.44,0.0,0.0,0.0,0.0,1
-42386.805,32903.46,-34187.76,-21181.23,0.0,0.0,0.0,0.0,1
-42400.62,32896.98,-34207.11,-21187.71,0.0,0.0,0.0,0.0,1
-42391.53,32887.71,-34193.835,-21176.73,0.0,0.0,0.0,0.0,1
-42373.53,32887.71,-34172.415,-21176.325,0.0,0.0,0.0,0.0,1
-42364.26,32889.24,-34169.355,-21189.51,0.0,0.0,0.0,0.0,1
-42366.42,32889.195,-34179.12,-21184.2,0.0,0.0,0.0,0.0,1
-42374.88,32887.53,-34186.32,-21186.18,0.0,0.0,0.0,0.0,1
-42375.24,32888.61,-34176.87,-21168.99,0.0,0.0,0.0,0.0,1
-42379.92,32887.08,-34184.925,-21162.105,0.0,0.0,0.0,0.0,1
-42376.32,32883.48,-34188.39,-21176.01,0.0,0.0,0.0,0.0,1
-42383.655,32879.16,-34205.94,-21196.395,0.0,0.0,0.0,0.0,1
-42403.59,32879.07,-34239.915,-21208.14,0.0,0.0,0.0,0.0,1
-42417.72,32874.66,-34206.165,-21192.435,0.0,0.0,0.0,0.0,1
-42426.09,32875.335,-34174.08,-21180.78,0.0,0.0,0.0,0.0,1
-42354.63,32879.025,-34140.42,-21165.615,0.0,0.0,0.0,0.0,1
-42348.78,32882.76,-34163.955,-21154.365,0.0,0.0,0.0,0.0,1
-42365.52,32884.245,-34185.6,-21159.18,0.0,0.0,0.0,0.0,1
-42383.025,32879.205,-34189.47,-21179.79,0.0,0.0,0.0,0.0,1
-42373.17,32876.82,-34183.845,-21220.83,0.0,0.0,0.0,0.0,1
-42375.6,32880.375,-34183.35,-21207.555,0.0,0.0,0.0,0.0,1
-42384.825,32882.355,-34218.54,-21200.265,0.0,0.0,0.0,0.0,1
-42386.625,32882.265,-34235.64,-21197.61,0.0,0.0,0.0,0.0,1
-42368.625,32879.07,-34206.66,-21194.91,0.0,0.0,0.0,0.0,1
-42351.57,32885.235,-34120.35,-21162.465,0.0,0.0,0.0,0.0,1
-42363.585,32885.37,-34141.77,-21182.4,0.0,0.0,0.0,0.0,1
-42377.895,32877.72,-34173.315,-21190.05,0.0,0.0,0.0,0.0,1
-42384.105,32872.32,-34183.44,-21190.635,0.0,0.0,0.0,0.0,1
-42394.725,32874.93,-34191.63,-21196.35,0.0,0.0,0.0,0.0,1
-42396.615,32876.145,-34190.19,-21196.665,0.0,0.0,0.0,0.0,1
-42384.735,32873.895,-34190.055,-21192.615,0.0,0.0,0.0,0.0,1
-42384.24,32870.52,-34191.36,-21186.36,0.0,0.0,0.0,0.0,1
-42384.69,32870.88,-34190.73,-21184.02,0.0,0.0,0.0,0.0,1
-42381.855,32867.82,-34181.505,-21183.03,0.0,0.0,0.0,0.0,1
-42383.835,32868.495,-34181.91,-21178.395,0.0,0.0,0.0,0.0,1
-42386.265,32868.09,-34188.795,-21177.315,0.0,0.0,0.0,0.0,1
-42386.22,32869.485,-34189.38,-21174.21,0.0,0.0,0.0,0.0,1
-42385.995,32872.455,-34187.49,-21191.715,0.0,0.0,0.0,0.0,1
-42395.49,32875.695,-34190.145,-21192.795,0.0,0.0,0.0,0.0,1
-42394.725,32877.135,-34185.105,-21183.75,0.0,0.0,0.0,0.0,1
-42411.42,32877.675,-34216.785,-21205.305,0.0,0.0,0.0,0.0,1
-42426.315,32877.315,-34246.89,-21212.28,0.0,0.0,0.0,0.0,1
-42406.515,32878.71,-34221.24,-21200.625,0.0,0.0,0.0,0.0,1
-42360.165,32874.48,-34179.84,-21193.875,0.0,0.0,0.0,0.0,1
-42354.135,32872.455,-34145.19,-21177.0,0.0,0.0,0.0,0.0,1
-42367.95,32870.07,-34162.245,-21181.905,0.0,0.0,0.0,0.0,1
-42377.94,32870.61,-34174.845,-21176.325,0.0,0.0,0.0,0.0,1
-42383.115,32869.755,-34180.29,-21171.915,0.0,0.0,0.0,0.0,1
-42387.795,32866.065,-34193.565,-21193.245,0.0,0.0,0.0,0.0,1
-42392.835,32865.435,-34192.53,-21191.175,0.0,0.0,0.0,0.0,1
-42389.055,32866.11,-34185.24,-21179.43,0.0,0.0,0.0,0.0,1
-42382.62,32864.445,-34184.475,-21185.46,0.0,0.0,0.0,0.0,1
-42384.105,32864.085,-34195.32,-21194.865,0.0,0.0,0.0,0.0,1
-42385.5,32868.72,-34191.54,-21186.27,0.0,0.0,0.0,0.0,1
-42389.46,32878.62,-34196.985,-21188.43,0.0,0.0,0.0,0.0,1
-42388.38,32882.58,-34198.29,-21185.1,0.0,0.0,0.0,0.0,1
-42390.09,32884.47,-34196.4,-21186.0,0.0,0.0,0.0,0.0,1
-42389.415,32884.2,-34198.83,-21189.465,0.0,0.0,0.0,0.0,1
-42391.755,32882.94,-34202.61,-21200.445,0.0,0.0,0.0,0.0,1
-42383.385,32884.605,-34186.5,-21189.33,0.0,0.0,0.0,0.0,1
-42382.305,32884.695,-34190.055,-21190.95,0.0,0.0,0.0,0.0,1
-42385.815,32884.47,-34186.41,-21183.165,0.0,0.0,0.0,0.0,1
-42393.87,32884.65,-34196.22,-21180.645,0.0,0.0,0.0,0.0,1
-42417.45,32885.91,-34221.15,-21185.955,0.0,0.0,0.0,0.0,1
-42406.245,32891.715,-34214.31,-21206.205,0.0,0.0,0.0,0.0,1
-42381.45,32892.435,-34188.12,-21204.225,0.0,0.0,0.0,0.0,1
-42368.535,32891.67,-34183.845,-21189.33,0.0,0.0,0.0,0.0,1
-42374.34,32889.78,-34196.535,-21186.405,0.0,0.0,0.0,0.0,1
-42379.695,32889.465,-34207.11,-21218.58,0.0,0.0,0.0,0.0,1
-42379.425,32891.67,-34183.035,-21206.295,0.0,0.0,0.0,0.0,1
-42387.84,32894.37,-34173.27,-21181.005,0.0,0.0,0.0,0.0,1
-42389.595,32891.805,-34196.67,-21191.94,0.0,0.0,0.0,0.0,1
-42389.64,32888.745,-34189.155,-21184.965,0.0,0.0,0.0,0.0,1
-42396.39,32886.72,-34188.3,-21185.145,0.0,0.0,0.0,0.0,1
-42411.6,32883.795,-34201.35,-21190.005,0.0,0.0,0.0,0.0,1
-42413.085,32882.625,-34216.605,-21198.33,0.0,0.0,0.0,0.0,1
-42397.92,32886.36,-34212.24,-21193.11,0.0,0.0,0.0,0.0,1
-42389.865,32890.23,-34198.155,-21191.805,0.0,0.0,0.0,0.0,1
-42364.08,32896.485,-34173.36,-21178.755,0.0,0.0,0.0,0.0,1
-42363.765,32896.485,-34189.335,-21185.19,0.0,0.0,0.0,0.0,1
-42373.305,32899.68,-34183.395,-21176.82,0.0,0.0,0.0,0.0,1
-42378.795,32901.57,-34172.01,-21163.59,0.0,0.0,0.0,0.0,1
-42376.68,32901.75,-34188.93,-21192.255,0.0,0.0,0.0,0.0,1
-42387.21,32896.98,-34199.37,-21204.0,0.0,0.0,0.0,0.0,1
-42407.505,32895.72,-34210.845,-21197.79,0.0,0.0,0.0,0.0,1
-42388.83,32896.53,-34202.745,-21202.47,0.0,0.0,0.0,0.0,1
-42386.58,32898.6,-34194.465,-21197.88,0.0,0.0,0.0,0.0,1
-42382.845,32898.87,-34188.84,-21191.895,0.0,0.0,0.0,0.0,1
-42375.24,32902.11,-34186.14,-21185.595,0.0,0.0,0.0,0.0,1
-42371.1,32905.17,-34180.155,-21178.08,0.0,0.0,0.0,0.0,1
-42376.005,32905.71,-34173.135,-21176.64,0.0,0.0,0.0,0.0,1
-42400.215,32902.56,-34218.36,-21212.505,0.0,0.0,0.0,0.0,1
-42403.23,32903.145,-34228.26,-21209.805,0.0,0.0,0.0,0.0,1
-42376.59,32899.32,-34198.515,-21204.72,0.0,0.0,0.0,0.0,1
-42370.515,32899.455,-34177.41,-21204.63,0.0,0.0,0.0,0.0,1
-42388.92,32898.96,-34183.17,-21189.105,0.0,0.0,0.0,0.0,1
-42388.83,32899.725,-34189.875,-21189.645,0.0,0.0,0.0,0.0,1
-42385.77,32899.635,-34199.595,-21197.34,0.0,0.0,0.0,0.0,1
-42392.88,32899.635,-34207.11,-21196.17,0.0,0.0,0.0,0.0,1
-42413.22,32897.16,-34220.79,-21192.12,0.0,0.0,0.0,0.0,1
-42406.74,32899.14,-34201.485,-21179.745,0.0,0.0,0.0,0.0,1
-42359.805,32901.345,-34166.295,-21184.155,0.0,0.0,0.0,0.0,1
-42369.165,32899.815,-34185.735,-21194.19,0.0,0.0,0.0,0.0,1
-42386.085,32893.245,-34198.605,-21193.38,0.0,0.0,0.0,0.0,1
-42382.17,32892.21,-34193.88,-21182.58,0.0,0.0,0.0,0.0,1
-42383.115,32892.615,-34202.25,-21184.515,0.0,0.0,0.0,0.0,1
-42382.71,32893.02,-34208.37,-21197.655,0.0,0.0,0.0,0.0,1
-42383.745,32891.58,-34202.52,-21208.41,0.0,0.0,0.0,0.0,1
-42392.565,32890.995,-34196.76,-21202.65,0.0,0.0,0.0,0.0,1
-42395.94,32890.23,-34196.85,-21194.01,0.0,0.0,0.0,0.0,1
-42381.09,32891.715,-34177.815,-21175.74,0.0,0.0,0.0,0.0,1
-42369.39,32891.175,-34172.325,-21182.4,0.0,0.0,0.0,0.0,1
-42380.19,32888.835,-34197.795,-21196.845,0.0,0.0,0.0,0.0,1
-42382.575,32880.195,-34192.935,-21176.325,0.0,0.0,0.0,0.0,1
-42384.555,32879.835,-34188.48,-21173.94,0.0,0.0,0.0,0.0,1
-42388.65,32880.825,-34193.88,-21203.46,0.0,0.0,0.0,0.0,1
-42392.52,32883.66,-34187.58,-21193.155,0.0,0.0,0.0,0.0,1
-42384.51,32885.28,-34197.39,-21195.405,0.0,0.0,0.0,0.0,1
-42391.305,32890.185,-34215.57,-21204.45,0.0,0.0,0.0,0.0,1
-42418.575,32891.985,-34226.19,-21199.23,0.0,0.0,0.0,0.0,1
-42418.89,32890.995,-34220.295,-21203.1,0.0,0.0,0.0,0.0,1
-42369.21,32891.715,-34183.8,-21207.825,0.0,0.0,0.0,0.0,1
-42354.72,32891.985,-34166.79,-21187.89,0.0,0.0,0.0,0.0,1
-42364.845,32883.48,-34186.815,-21189.42,0.0,0.0,0.0,0.0,1
-42384.915,32883.075,-34190.865,-21187.17,0.0,0.0,0.0,0.0,1
-42385.455,32882.985,-34198.425,-21190.095,0.0,0.0,0.0,0.0,1
-42396.39,32882.76,-34218.495,-21196.62,0.0,0.0,0.0,0.0,1
-42411.015,32881.275,-34229.115,-21200.22,0.0,0.0,0.0,0.0,1
-42400.755,32883.255,-34221.78,-21207.465,0.0,0.0,0.0,0.0,1
-42372.63,32884.965,-34167.24,-21173.805,0.0,0.0,0.0,0.0,1
-42364.44,32885.28,-34168.365,-21185.37,0.0,0.0,0.0,0.0,1
-42398.19,32884.11,-34213.59,-21219.03,0.0,0.0,0.0,0.0,1
-42397.245,32884.875,-34207.155,-21205.08,0.0,0.0,0.0,0.0,1
-42390.495,32879.025,-34207.605,-21199.185,0.0,0.0,0.0,0.0,1
-42398.37,32881.32,-34208.055,-21201.93,0.0,0.0,0.0,0.0,1
-42385.95,32884.335,-34185.825,-21190.005,0.0,0.0,0.0,0.0,1
-42371.28,32886.405,-34174.035,-21177.9,0.0,0.0,0.0,0.0,1
-42375.195,32886.405,-34184.97,-21182.94,0.0,0.0,0.0,0.0,1
-42393.105,32885.865,-34223.67,-21210.48,0.0,0.0,0.0,0.0,1
-42389.01,32887.125,-34223.49,-21221.64,0.0,0.0,0.0,0.0,1
-42397.695,32890.41,-34216.425,-21212.64,0.0,0.0,0.0,0.0,1
-42375.915,32893.83,-34185.015,-21195.405,0.0,0.0,0.0,0.0,1
-42370.245,32894.595,-34183.575,-21195.63,0.0,0.0,0.0,0.0,1
-42378.03,32887.485,-34192.62,-21193.47,0.0,0.0,0.0,0.0,1
-42384.555,32887.98,-34192.755,-21181.23,0.0,0.0,0.0,0.0,1
-42385.995,32889.06,-34193.835,-21188.79,0.0,0.0,0.0,0.0,1
-42387.03,32891.535,-34191.0,-21213.99,0.0,0.0,0.0,0.0,1
-42385.815,32890.995,-34198.29,-21216.915,0.0,0.0,0.0,0.0,1
-42379.92,32895.495,-34208.325,-21214.8,0.0,0.0,0.0,0.0,1
-42387.3,32897.97,-34223.67,-21214.53,0.0,0.0,0.0,0.0,1
-42387.84,32899.14,-34236.72,-21226.095,0.0,0.0,0.0,0.0,1
-42398.595,32899.23,-34262.73,-21218.805,0.0,0.0,0.0,0.0,1
-42414.39,32901.21,-34259.085,-21203.055,0.0,0.0,0.0,0.0,1
-42398.865,32898.375,-34201.395,-21201.12,0.0,0.0,0.0,0.0,1
-42361.74,32903.19,-34124.445,-21174.075,0.0,0.0,0.0,0.0,1
-42374.655,32902.965,-34151.31,-21173.355,0.0,0.0,0.0,0.0,1
-42383.52,32904.18,-34188.525,-21201.21,0.0,0.0,0.0,0.0,1
-42395.715,32904.81,-34201.62,-21202.02,0.0,0.0,0.0,0.0,1
-42392.34,32905.305,-34185.33,-21181.545,0.0,0.0,0.0,0.0,1
-42381.135,32905.17,-34178.58,-21180.915,0.0,0.0,0.0,0.0,1
-42375.33,32904.675,-34186.095,-21179.655,0.0,0.0,0.0,0.0,1
-42389.1,32902.56,-34208.505,-21195.45,0.0,0.0,0.0,0.0,1
-42390.63,32902.83,-34222.68,-21208.14,0.0,0.0,0.0,0.0,1
-42375.645,32897.835,-34193.97,-21186.675,0.0,0.0,0.0,0.0,1
-42380.19,32897.295,-34196.625,-21202.245,0.0,0.0,0.0,0.0,1
-42383.565,32899.59,-34191.405,-21196.08,0.0,0.0,0.0,0.0,1
-42382.08,32901.66,-34196.355,-21187.125,0.0,0.0,0.0,0.0,1
-42382.53,32901.255,-34210.26,-21219.705,0.0,0.0,0.0,0.0,1
-42391.125,32898.33,-34224.165,-21234.105,0.0,0.0,0.0,0.0,1
-42398.505,32896.485,-34223.13,-21212.505,0.0,0.0,0.0,0.0,1
-42390.855,32898.87,-34205.805,-21193.605,0.0,0.0,0.0,0.0,1
-42385.725,32898.735,-34203.78,-21197.475,0.0,0.0,0.0,0.0,1
-42392.88,32898.285,-34213.905,-21219.795,0.0,0.0,0.0,0.0,1
-42392.835,32890.905,-34208.595,-21215.475,0.0,0.0,0.0,0.0,1
-42392.25,32889.51,-34205.715,-21205.62,0.0,0.0,0.0,0.0,1
-42400.755,32890.185,-34205.085,-21201.93,0.0,0.0,0.0,0.0,1
-42417.54,32890.635,-34215.165,-21201.03,0.0,0.0,0.0,0.0,1
-42397.74,32890.905,-34234.38,-21209.715,0.0,0.0,0.0,0.0,1
-42385.77,32893.83,-34215.39,-21200.58,0.0,0.0,0.0,0.0,1
-42396.795,32896.125,-34209.495,-21201.705,0.0,0.0,0.0,0.0,1
-42397.02,32901.435,-34205.94,-21203.055,0.0,0.0,0.0,0.0,1
-42376.23,32905.755,-34185.33,-21191.355,0.0,0.0,0.0,0.0,1
-42383.115,32907.06,-34195.455,-21195.63,0.0,0.0,0.0,0.0,1
-42383.205,32901.525,-34189.965,-21191.175,0.0,0.0,0.0,0.0,1
-42385.32,32899.455,-34198.92,-21206.205,0.0,0.0,0.0,0.0,1
-42388.56,32898.06,-34195.59,-21204.315,0.0,0.0,0.0,0.0,1
-42392.88,32897.34,-34190.73,-21188.7,0.0,0.0,0.0,0.0,1
-42403.23,32895.315,-34213.5,-21214.35,0.0,0.0,0.0,0.0,1
-42382.305,32897.97,-34203.915,-21204.135,0.0,0.0,0.0,0.0,1
-42384.645,32897.61,-34202.97,-21189.645,0.0,0.0,0.0,0.0,1
-42404.175,32895.585,-34205.355,-21187.62,0.0,0.0,0.0,0.0,1
-42403.5,32894.505,-34212.735,-21191.13,0.0,0.0,0.0,0.0,1
-42397.065,32895.18,-34214.805,-21190.815,0.0,0.0,0.0,0.0,1
-42394.995,32891.805,-34206.165,-21190.455,0.0,0.0,0.0,0.0,1
-42396.93,32891.94,-34210.035,-21197.79,0.0,0.0,0.0,0.0,1
-42378.345,32894.1,-34194.24,-21183.345,0.0,0.0,0.0,0.0,1
-42393.645,32893.56,-34228.98,-21222.27,0.0,0.0,0.0,0.0,1
-42400.665,32891.67,-34223.445,-21216.33,0.0,0.0,0.0,0.0,1
-42387.345,32892.21,-34217.37,-21213.405,0.0,0.0,0.0,0.0,1
-42376.095,32891.805,-34194.015,-21202.29,0.0,0.0,0.0,0.0,1
-42377.715,32893.155,-34192.26,-21199.005,0.0,0.0,0.0,0.0,1
-42380.1,32892.03,-34192.71,-21195.36,0.0,0.0,0.0,0.0,1
-42382.44,32887.845,-34193.07,-21190.545,0.0,0.0,0.0,0.0,1
-42378.3,32878.125,-34213.365,-21217.23,0.0,0.0,0.0,0.0,1
-42386.58,32879.07,-34206.03,-21203.19,0.0,0.0,0.0,0.0,1
-42387.12,32878.62,-34201.44,-21191.04,0.0,0.0,0.0,0.0,1
-42395.265,32873.13,-34227.675,-21204.765,0.0,0.0,0.0,0.0,1
-42400.755,32873.085,-34259.535,-21235.635,0.0,0.0,0.0,0.0,1
-42392.79,32875.605,-34229.655,-21222.45,0.0,0.0,0.0,0.0,1
-42381.81,32875.695,-34199.505,-21207.06,0.0,0.0,0.0,0.0,1
-42380.775,32876.685,-34175.205,-21186.99,0.0,0.0,0.0,0.0,1
-42387.48,32874.885,-34190.82,-21191.4,0.0,0.0,0.0,0.0,1
-42387.705,32872.365,-34197.165,-21198.42,0.0,0.0,0.0,0.0,1
-42387.21,32870.565,-34201.98,-21197.7,0.0,0.0,0.0,0.0,1
-42391.98,32872.545,-34209.45,-21204.81,0.0,0.0,0.0,0.0,1
-42399.36,32872.905,-34233.885,-21214.26,0.0,0.0,0.0,0.0,1
-42399.27,32871.285,-34256.97,-21236.94,0.0,0.0,0.0,0.0,1
-42397.47,32870.97,-34216.74,-21213.72,0.0,0.0,0.0,0.0,1
-42416.415,32871.42,-34190.415,-21190.32,0.0,0.0,0.0,0.0,1
-42408.45,32871.105,-34200.63,-21201.12,0.0,0.0,0.0,0.0,1
-42370.2,32872.905,-34182.495,-21194.325,0.0,0.0,0.0,0.0,1
-42377.22,32872.14,-34188.795,-21191.535,0.0,0.0,0.0,0.0,1
-42386.76,32866.965,-34189.695,-21184.425,0.0,0.0,0.0,0.0,1
-42404.715,32856.75,-34207.56,-21196.395,0.0,0.0,0.0,0.0,1
-42408.405,32855.31,-34218.36,-21203.19,0.0,0.0,0.0,0.0,1
-42379.695,32856.93,-34200.765,-21201.705,0.0,0.0,0.0,0.0,1
-42375.195,32857.065,-34200.18,-21222.585,0.0,0.0,0.0,0.0,1
-42385.545,32856.21,-34203.555,-21220.74,0.0,0.0,0.0,0.0,1
-42383.655,32858.19,-34210.665,-21204.765,0.0,0.0,0.0,0.0,1
-42397.29,32857.83,-34227.585,-21201.21,0.0,0.0,0.0,0.0,1
-42400.44,32860.71,-34218.36,-21193.29,0.0,0.0,0.0,0.0,1
-42393.915,32864.04,-34194.24,-21184.335,0.0,0.0,0.0,0.0,1
-42389.1,32865.975,-34184.43,-21170.16,0.0,0.0,0.0,0.0,1
-42390.495,32861.52,-34190.235,-21176.955,0.0,0.0,0.0,0.0,1
-42390.945,32858.46,-34201.305,-21217.545,0.0,0.0,0.0,0.0,1
-42393.42,32856.525,-34212.42,-21214.26,0.0,0.0,0.0,0.0,1
-42392.475,32855.985,-34213.815,-21203.28,0.0,0.0,0.0,0.0,1
-42389.955,32853.735,-34204.59,-21189.96,0.0,0.0,0.0,0.0,1
-42386.715,32851.215,-34202.7,-21188.97,0.0,0.0,0.0,0.0,1
-42396.84,32849.955,-34220.97,-21209.085,0.0,0.0,0.0,0.0,1
-42401.655,32852.295,-34223.58,-21214.215,0.0,0.0,0.0,0.0,1
-42395.94,32853.87,-34208.235,-21205.53,0.0,0.0,0.0,0.0,1
-42386.805,32852.115,-34190.415,-21182.13,0.0,0.0,0.0,0.0,1
-42378.84,32843.745,-34200.045,-21184.245,0.0,0.0,0.0,0.0,1
-42380.28,32843.88,-34205.265,-21213.99,0.0,0.0,0.0,0.0,1
-42399.45,32844.87,-34219.98,-21225.555,0.0,0.0,0.0,0.0,1
-42408.09,32843.835,-34236.63,-21220.47,0.0,0.0,0.0,0.0,1
-42413.22,32843.88,-34234.83,-21218.31,0.0,0.0,0.0,0.0,1
-42396.975,32847.21,-34214.895,-21210.93,0.0,0.0,0.0,0.0,1
-42387.57,32847.3,-34213.995,-21210.615,0.0,0.0,0.0,0.0,1
-42407.1,32845.635,-34226.055,-21211.425,0.0,0.0,0.0,0.0,1
-42392.565,32844.51,-34211.745,-21209.04,0.0,0.0,0.0,0.0,1
-42375.105,32842.755,-34198.29,-21199.59,0.0,0.0,0.0,0.0,1
-42391.53,32834.25,-34222.95,-21201.165,0.0,0.0,0.0,0.0,1
-42397.65,32833.395,-34261.695,-21232.62,0.0,0.0,0.0,0.0,1
-42397.515,32835.51,-34248.645,-21222.63,0.0,0.0,0.0,0.0,1
-42386.04,32837.445,-34215.66,-21223.755,0.0,0.0,0.0,0.0,1
-42383.835,32837.85,-34170.03,-21195.81,0.0,0.0,0.0,0.0,1
-42399.045,32836.545,-34197.39,-21200.625,0.0,0.0,0.0,0.0,1
-42388.965,32835.285,-34205.625,-21203.82,0.0,0.0,0.0,0.0,1
-42390.495,32834.34,-34206.615,-21203.46,0.0,0.0,0.0,0.0,1
-42404.04,32833.845,-34211.295,-21201.345,0.0,0.0,0.0,0.0,1
-42408.405,32831.595,-34220.925,-21205.71,0.0,0.0,0.0,0.0,1
-42396.255,32823.81,-34223.31,-21202.335,0.0,0.0,0.0,0.0,1
-42387.705,32823.855,-34209.9,-21197.385,0.0,0.0,0.0,0.0,1
-42383.16,32825.295,-34207.83,-21197.16,0.0,0.0,0.0,0.0,1
-42383.88,32826.33,-34206.93,-21206.205,0.0,0.0,0.0,0.0,1
-42385.23,32826.105,-34213.095,-21220.38,0.0,0.0,0.0,0.0,1
-42385.905,32826.285,-34218.27,-21216.195,0.0,0.0,0.0,0.0,1
-42408.315,32825.88,-34239.51,-21221.865,0.0,0.0,0.0,0.0,1
-42410.295,32827.995,-34237.395,-21212.28,0.0,0.0,0.0,0.0,1
-42391.53,32829.615,-34222.77,-21208.77,0.0,0.0,0.0,0.0,1
-42389.595,32830.83,-34198.29,-21196.305,0.0,0.0,0.0,0.0,1
-42396.615,32823.36,-34199.685,-21191.805,0.0,0.0,0.0,0.0,1
-42385.14,32823.495,-34205.625,-21188.115,0.0,0.0,0.0,0.0,1
-42388.335,32826.78,-34208.82,-21199.86,0.0,0.0,0.0,0.0,1
-42398.595,32825.655,-34219.305,-21208.635,0.0,0.0,0.0,0.0,1
-42395.94,32823.945,-34207.875,-21188.16,0.0,0.0,0.0,0.0,1
-42386.13,32825.16,-34212.6,-21197.52,0.0,0.0,0.0,0.0,1
-42392.025,32827.365,-34212.78,-21211.11,0.0,0.0,0.0,0.0,1
-42398.37,32830.47,-34220.88,-21201.75,0.0,0.0,0.0,0.0,1
-42407.865,32832.09,-34227.54,-21203.55,0.0,0.0,0.0,0.0,1
-42414.255,32832.585,-34232.535,-21218.715,0.0,0.0,0.0,0.0,1
-42394.59,32825.88,-34213.23,-21209.67,0.0,0.0,0.0,0.0,1
-42372.405,32824.935,-34195.05,-21202.83,0.0,0.0,0.0,0.0,1
-42376.365,32824.755,-34199.235,-21192.57,0.0,0.0,0.0,0.0,1
-42380.955,32825.61,-34201.215,-21190.77,0.0,0.0,0.0,0.0,1
-42393.6,32825.385,-34213.05,-21199.59,0.0,0.0,0.0,0.0,1
-42397.065,32829.165,-34223.04,-21214.665,0.0,0.0,0.0,0.0,1
-42398.235,32833.35,-34216.245,-21204.135,0.0,0.0,0.0,0.0,1
-42394.005,32835.51,-34222.455,-21209.22,0.0,0.0,0.0,0.0,1
-42401.565,32834.745,-34239.6,-21217.905,0.0,0.0,0.0,0.0,1
-42413.31,32833.665,-34258.995,-21233.34,0.0,0.0,0.0,0.0,1
-42404.94,32828.985,-34232.265,-21218.67,0.0,0.0,0.0,0.0,1
-42383.745,32832.045,-34199.865,-21202.245,0.0,0.0,0.0,0.0,1
-42380.64,32833.035,-34201.395,-21200.58,0.0,0.0,0.0,0.0,1
-42384.195,32834.295,-34205.58,-21198.33,0.0,0.0,0.0,0.0,1
-42385.365,32837.805,-34209.27,-21212.325,0.0,0.0,0.0,0.0,1
-42396.705,32844.015,-34224.03,-21222.765,0.0,0.0,0.0,0.0,1
-42405.39,32847.255,-34216.695,-21197.97,0.0,0.0,0.0,0.0,1
-42399.0,32848.785,-34221.33,-21211.83,0.0,0.0,0.0,0.0,1
-42396.255,32848.02,-34217.865,-21202.92,0.0,0.0,0.0,0.0,1
-42399.72,32845.86,-34229.475,-21207.15,0.0,0.0,0.0,0.0,1
-42411.465,32838.345,-34253.64,-21217.5,0.0,0.0,0.0,0.0,1
-42408.72,32836.77,-34256.52,-21218.535,0.0,0.0,0.0,0.0,1
-42404.355,32838.345,-34225.245,-21211.155,0.0,0.0,0.0,0.0,1
-42401.16,32837.895,-34193.43,-21197.835,0.0,0.0,0.0,0.0,1
-42387.84,32834.385,-34197.57,-21208.77,0.0,0.0,0.0,0.0,1
-42398.64,32833.8,-34212.105,-21199.455,0.0,0.0,0.0,0.0,1
-42394.14,32833.71,-34199.235,-21174.84,0.0,0.0,0.0,0.0,1
-42399.045,32831.055,-34218.09,-21221.01,0.0,0.0,0.0,0.0,1
-42400.98,32829.165,-34223.49,-21223.665,0.0,0.0,0.0,0.0,1
-42391.665,32833.62,-34213.905,-21219.84,0.0,0.0,0.0,0.0,1
-42379.29,32832.63,-34212.915,-21212.28,0.0,0.0,0.0,0.0,1
-42388.29,32833.305,-34226.775,-21222.45,0.0,0.0,0.0,0.0,1
-42398.865,32832.945,-34225.47,-21216.105,0.0,0.0,0.0,0.0,1
-42399.765,32832.36,-34221.24,-21207.555,0.0,0.0,0.0,0.0,1
-42399.135,32833.26,-34230.195,-21219.39,0.0,0.0,0.0,0.0,1
-42402.06,32836.095,-34219.44,-21210.21,0.0,0.0,0.0,0.0,1
-42408.81,32836.275,-34214.94,-21203.37,0.0,0.0,0.0,0.0,1
-42398.955,32836.455,-34217.595,-21209.04,0.0,0.0,0.0,0.0,1
-42395.67,32836.545,-34218.315,-21206.205,0.0,0.0,0.0,0.0,1
-42398.82,32833.17,-34227.63,-21196.53,0.0,0.0,0.0,0.0,1
-42406.695,32831.91,-34246.17,-21204.315,0.0,0.0,0.0,0.0,1
-42410.16,32834.61,-34271.415,-21247.245,0.0,0.0,0.0,0.0,1
-42410.34,32836.14,-34263.045,-21247.38,0.0,0.0,0.0,0.0,1
-42392.475,32837.31,-34199.865,-21201.345,0.0,0.0,0.0,0.0,1
-42392.52,32836.32,-34173.18,-21176.64,0.0,0.0,0.0,0.0,1
-42399.495,32836.05,-34200.225,-21206.835,0.0,0.0,0.0,0.0,1
-42398.19,32832.81,-34209.225,-21208.455,0.0,0.0,0.0,0.0,1
-42394.995,32834.295,-34212.555,-21217.14,0.0,0.0,0.0,0.0,1
-42395.895,32837.895,-34222.68,-21214.89,0.0,0.0,0.0,0.0,1
-42407.73,32834.97,-34238.655,-21230.595,0.0,0.0,0.0,0.0,1
-42403.59,32826.87,-34227.855,-21220.695,0.0,0.0,0.0,0.0,1
-42394.41,32825.97,-34217.595,-21217.455,0.0,0.0,0.0,0.0,1
-42389.28,32829.345,-34214.67,-21211.92,0.0,0.0,0.0,0.0,1
-42398.46,32830.11,-34228.755,-21218.265,0.0,0.0,0.0,0.0,1
-42399.63,32828.715,-34226.73,-21216.195,0.0,0.0,0.0,0.0,1
-42396.12,32826.6,-34213.32,-21201.165,0.0,0.0,0.0,0.0,1
-42398.505,32823.945,-34218.495,-21204.855,0.0,0.0,0.0,0.0,1
-42402.105,32822.46,-34224.615,-21211.02,0.0,0.0,0.0,0.0,1
-42410.295,32819.76,-34235.28,-21212.145,0.0,0.0,0.0,0.0,1
-42433.065,32816.295,-34268.805,-21236.085,0.0,0.0,0.0,0.0,1
-42420.555,32808.105,-34247.43,-21216.69,0.0,0.0,0.0,0.0,1
-42391.98,32808.825,-34213.815,-21215.115,0.0,0.0,0.0,0.0,1
-42389.46,32807.88,-34206.12,-21213.72,0.0,0.0,0.0,0.0,1
-42385.32,32807.07,-34205.805,-21209.85,0.0,0.0,0.0,0.0,1
-42392.88,32806.62,-34217.28,-21217.86,0.0,0.0,0.0,0.0,1
-42396.165,32812.065,-34216.425,-21215.025,0.0,0.0,0.0,0.0,1
-42397.92,32814.675,-34214.445,-21201.12,0.0,0.0,0.0,0.0,1
-42396.57,32811.255,-34225.92,-21214.035,0.0,0.0,0.0,0.0,1
-42406.02,32807.07,-34226.01,-21212.145,0.0,0.0,0.0,0.0,1
-42411.78,32806.215,-34230.735,-21208.23,0.0,0.0,0.0,0.0,1
-42418.035,32802.93,-34249.095,-21220.155,0.0,0.0,0.0,0.0,1
-42408.99,32805.495,-34243.47,-21222.54,0.0,0.0,0.0,0.0,1
-42387.03,32809.185,-34221.105,-21213.27,0.0,0.0,0.0,0.0,1
-42389.325,32811.885,-34218.585,-21207.915,0.0,0.0,0.0,0.0,1
-42399.27,32811.21,-34231.5,-21217.32,0.0,0.0,0.0,0.0,1
-42394.005,32812.65,-34216.425,-21210.03,0.0,0.0,0.0,0.0,1
-42401.565,32811.885,-34218.585,-21210.12,0.0,0.0,0.0,0.0,1
-42397.56,32812.335,-34221.69,-21212.145,0.0,0.0,0.0,0.0,1
-42394.455,32811.03,-34213.995,-21202.695,0.0,0.0,0.0,0.0,1
-42401.88,32807.97,-34224.03,-21213.45,0.0,0.0,0.0,0.0,1
-42404.445,32801.04,-34225.695,-21215.79,0.0,0.0,0.0,0.0,1
-42394.905,32807.88,-34219.08,-21208.635,0.0,0.0,0.0,0.0,1
-42395.355,32811.345,-34224.165,-21211.02,0.0,0.0,0.0,0.0,1
-42400.98,32808.555,-34232.13,-21217.14,0.0,0.0,0.0,0.0,1
-42414.21,32805.585,-34241.625,-21224.52,0.0,0.0,0.0,0.0,1
-42408.09,32804.505,-34233.345,-21221.505,0.0,0.0,0.0,0.0,1
-42398.595,32802.66,-34232.49,-21230.865,0.0,0.0,0.0,0.0,1
-42404.22,32800.635,-34238.07,-21224.475,0.0,0.0,0.0,0.0,1
-42412.86,32800.32,-34245.18,-21220.965,0.0,0.0,0.0,0.0,1
-42408.495,32803.515,-34233.255,-21213.945,0.0,0.0,0.0,0.0,1
-42384.105,32802.21,-34211.205,-21206.16,0.0,0.0,0.0,0.0,1
-42395.715,32803.38,-34223.715,-21206.745,0.0,0.0,0.0,0.0,1
-42398.145,32805.72,-34228.53,-21207.69,0.0,0.0,0.0,0.0,1
-42389.145,32808.6,-34220.925,-21214.305,0.0,0.0,0.0,0.0,1
-42391.485,32808.51,-34225.605,-21211.47,0.0,0.0,0.0,0.0,1
-42405.57,32808.87,-34228.305,-21203.055,0.0,0.0,0.0,0.0,1
-42408.405,32808.375,-34234.11,-21210.66,0.0,0.0,0.0,0.0,1
-42400.89,32807.925,-34239.015,-21234.645,0.0,0.0,0.0,0.0,1
-42412.455,32807.385,-34245.63,-21231.36,0.0,0.0,0.0,0.0,1
-42424.245,32804.73,-34253.955,-21232.8,0.0,0.0,0.0,0.0,1
-42411.6,32797.305,-34243.29,-21225.42,0.0,0.0,0.0,0.0,1
-42392.07,32794.425,-34221.555,-21213.27,0.0,0.0,0.0,0.0,1
-42390.45,32791.86,-34222.005,-21209.355,0.0,0.0,0.0,0.0,1
-42400.89,32789.295,-34220.925,-21208.995,0.0,0.0,0.0,0.0,1
-42399.495,32786.73,-34219.26,-21209.265,0.0,0.0,0.0,0.0,1
-42394.815,32787.63,-34216.74,-21208.995,0.0,0.0,0.0,0.0,1
-42403.725,32786.64,-34222.275,-21212.325,0.0,0.0,0.0,0.0,1
-42404.49,32784.885,-34227.99,-21215.025,0.0,0.0,0.0,0.0,1
-42387.615,32784.795,-34214.085,-21201.795,0.0,0.0,0.0,0.0,1
-42391.44,32785.47,-34223.895,-21212.55,0.0,0.0,0.0,0.0,1
-42396.345,32780.07,-34232.085,-21220.74,0.0,0.0,0.0,0.0,1
-42405.705,32781.06,-34231.005,-21212.64,0.0,0.0,0.0,0.0,1
-42405.615,32784.66,-34224.21,-21203.955,0.0,0.0,0.0,0.0,1
-42398.505,32784.255,-34223.265,-21207.78,0.0,0.0,0.0,0.0,1
-42396.165,32782.455,-34216.245,-21209.49,0.0,0.0,0.0,0.0,1
-42398.775,32779.98,-34228.17,-21211.695,0.0,0.0,0.0,0.0,1
-42394.095,32777.01,-34231.005,-21219.705,0.0,0.0,0.0,0.0,1
-42394.95,32775.66,-34221.69,-21219.255,0.0,0.0,0.0,0.0,1
-42412.005,32776.155,-34240.005,-21224.025,0.0,0.0,0.0,0.0,1
-42417.495,32772.33,-34255.26,-21224.025,0.0,0.0,0.0,0.0,1
-42416.64,32769.36,-34234.155,-21207.69,0.0,0.0,0.0,0.0,1
-42397.515,32771.43,-34210.44,-21204.045,0.0,0.0,0.0,0.0,1
-42396.93,32772.555,-34220.7,-21218.895,0.0,0.0,0.0,0.0,1
-42392.07,32776.47,-34220.565,-21214.215,0.0,0.0,0.0,0.0,1
-42388.74,32779.26,-34203.105,-21186.855,0.0,0.0,0.0,0.0,1
-42395.76,32772.915,-34244.595,-21235.455,0.0,0.0,0.0,0.0,1
-42402.96,32769.135,-34247.565,-21242.16,0.0,0.0,0.0,0.0,1
-42402.51,32765.04,-34243.875,-21236.31,0.0,0.0,0.0,0.0,1
-42396.12,32762.61,-34237.845,-21223.305,0.0,0.0,0.0,0.0,1
-42402.78,32761.395,-34239.195,-21227.22,0.0,0.0,0.0,0.0,1
-42405.66,32755.185,-34242.165,-21232.305,0.0,0.0,0.0,0.0,1
-42407.55,32753.565,-34247.565,-21233.385,0.0,0.0,0.0,0.0,1
-42397.245,32756.13,-34242.21,-21226.77,0.0,0.0,0.0,0.0,1
-42390.855,32757.48,-34232.805,-21213.09,0.0,0.0,0.0,0.0,1
-42392.295,32756.355,-34234.245,-21229.065,0.0,0.0,0.0,0.0,1
-42390.945,32754.78,-34215.975,-21229.29,0.0,0.0,0.0,0.0,1
-42394.365,32751.9,-34221.375,-21223.44,0.0,0.0,0.0,0.0,1
-42396.255,32753.61,-34221.195,-21218.715,0.0,0.0,0.0,0.0,1
-42406.065,32753.835,-34226.145,-21221.235,0.0,0.0,0.0,0.0,1
-42411.015,32753.655,-34231.275,-21217.23,0.0,0.0,0.0,0.0,1
-42403.41,32746.635,-34240.455,-21220.335,0.0,0.0,0.0,0.0,1
-42393.69,32744.43,-34240.905,-21226.905,0.0,0.0,0.0,0.0,1
-42396.84,32743.08,-34228.26,-21223.35,0.0,0.0,0.0,0.0,1
-42400.62,32743.575,-34216.425,-21214.26,0.0,0.0,0.0,0.0,1
-42392.925,32743.35,-34205.085,-21195.045,0.0,0.0,0.0,0.0,1
-42402.42,32740.065,-34219.665,-21204.09,0.0,0.0,0.0,0.0,1
-42434.19,32735.835,-34260.03,-21232.98,0.0,0.0,0.0,0.0,1
-42426.765,32734.845,-34253.01,-21229.065,0.0,0.0,0.0,0.0,1
-42395.67,32735.52,-34223.4,-21216.195,0.0,0.0,0.0,0.0,1
-42402.195,32737.995,-34217.055,-21205.98,0.0,0.0,0.0,0.0,1
-42391.71,32730.795,-34227.225,-21221.91,0.0,0.0,0.0,0.0,1
-42389.01,32727.96,-34231.41,-21240.9,0.0,0.0,0.0,0.0,1
-42395.85,32726.835,-34223.805,-21220.92,0.0,0.0,0.0,0.0,1
-42398.37,32727.96,-34220.655,-21212.73,0.0,0.0,0.0,0.0,1
-42388.245,32729.805,-34210.98,-21205.62,0.0,0.0,0.0,0.0,1
-42391.215,32731.335,-34225.065,-21224.295,0.0,0.0,0.0,0.0,1
-42403.365,32735.115,-34219.575,-21207.465,0.0,0.0,0.0,0.0,1
-42399.765,32740.56,-34237.845,-21229.47,0.0,0.0,0.0,0.0,1
-42395.13,32741.91,-34238.52,-21241.305,0.0,0.0,0.0,0.0,1
-42397.695,32737.14,-34247.295,-21236.985,0.0,0.0,0.0,0.0,1
-42405.39,32726.61,-34266.24,-21245.49,0.0,0.0,0.0,0.0,1
-42412.545,32721.705,-34275.195,-21252.87,0.0,0.0,0.0,0.0,1
-42389.595,32720.895,-34224.165,-21209.265,0.0,0.0,0.0,0.0,1
-42386.355,32720.895,-34208.595,-21200.04,0.0,0.0,0.0,0.0,1
-42395.355,32719.635,-34217.01,-21234.915,0.0,0.0,0.0,0.0,1
-42398.955,32722.605,-34218.72,-21228.48,0.0,0.0,0.0,0.0,1
-42389.415,32724.405,-34211.88,-21214.395,0.0,0.0,0.0,0.0,1
-42392.655,32721.705,-34205.265,-21198.06,0.0,0.0,0.0,0.0,1
-42412.905,32716.53,-34249.68,-21222.315,0.0,0.0,0.0,0.0,1
-42419.745,32714.28,-34286.445,-21247.155,0.0,0.0,0.0,0.0,1
-42409.125,32714.325,-34275.78,-21262.32,0.0,0.0,0.0,0.0,1
-42394.905,32718.96,-34207.065,-21237.345,0.0,0.0,0.0,0.0,1
-42400.53,32720.265,-34201.215,-21215.79,0.0,0.0,0.0,0.0,1
-42407.64,32720.355,-34231.455,-21231.495,0.0,0.0,0.0,0.0,1
-42415.155,32721.66,-34239.285,-21223.53,0.0,0.0,0.0,0.0,1
-42396.435,32723.37,-34229.88,-21219.705,0.0,0.0,0.0,0.0,1
-42395.445,32724.135,-34217.415,-21211.605,0.0,0.0,0.0,0.0,1
-42394.905,32723.46,-34213.815,-21205.26,0.0,0.0,0.0,0.0,1
-42399.99,32719.68,-34224.345,-21211.785,0.0,0.0,0.0,0.0,1
-42425.865,32713.74,-34258.95,-21236.085,0.0,0.0,0.0,0.0,1
-42433.38,32704.155,-34268.715,-21235.185,0.0,0.0,0.0,0.0,1
-42401.52,32706.99,-34254.45,-21235.59,0.0,0.0,0.0,0.0,1
-42391.845,32710.365,-34220.475,-21220.02,0.0,0.0,0.0,0.0,1
-42382.305,32710.5,-34199.865,-21220.92,0.0,0.0,0.0,0.0,1
-42390.99,32709.105,-34219.215,-21227.895,0.0,0.0,0.0,0.0,1
-42399.945,32710.32,-34220.79,-21217.365,0.0,0.0,0.0,0.0,1
-42398.415,32709.87,-34236.63,-21234.24,0.0,0.0,0.0,0.0,1
-42396.75,32708.88,-34226.82,-21225.015,0.0,0.0,0.0,0.0,1
-42407.865,32708.565,-34236.81,-21232.08,0.0,0.0,0.0,0.0,1
-42400.215,32707.17,-34248.195,-21239.28,0.0,0.0,0.0,0.0,1
-42395.49,32701.365,-34228.17,-21214.26,0.0,0.0,0.0,0.0,1
-42397.335,32701.41,-34226.19,-21216.735,0.0,0.0,0.0,0.0,1
-42411.465,32700.51,-34253.1,-21240.27,0.0,0.0,0.0,0.0,1
-42407.91,32701.5,-34260.615,-21256.47,0.0,0.0,0.0,0.0,1
-42406.875,32702.985,-34240.5,-21224.34,0.0,0.0,0.0,0.0,1
-42413.94,32701.68,-34251.975,-21227.58,0.0,0.0,0.0,0.0,1
-42405.795,32701.455,-34239.78,-21222.585,0.0,0.0,0.0,0.0,1
-42390.405,32703.66,-34214.805,-21226.275,0.0,0.0,0.0,0.0,1
-42386.04,32705.595,-34213.455,-21217.86,0.0,0.0,0.0,0.0,1
-42402.645,32704.83,-34250.85,-21250.8,0.0,0.0,0.0,0.0,1
-42407.955,32699.295,-34246.98,-21244.635,0.0,0.0,0.0,0.0,1
-42406.965,32702.67,-34243.335,-21237.03,0.0,0.0,0.0,0.0,1
-42410.295,32706.225,-34247.745,-21231.225,0.0,0.0,0.0,0.0,1
-42408.045,32709.24,-34234.695,-21219.975,0.0,0.0,0.0,0.0,1
-42404.715,32709.78,-34234.92,-21228.345,0.0,0.0,0.0,0.0,1
-42402.42,32711.895,-34234.425,-21230.325,0.0,0.0,0.0,0.0,1
-42393.645,32714.64,-34225.29,-21224.88,0.0,0.0,0.0,0.0,1
-42395.625,32716.845,-34227.45,-21216.555,0.0,0.0,0.0,0.0,1
-42402.15,32716.62,-34241.355,-21225.06,0.0,0.0,0.0,0.0,1
-42403.365,32714.685,-34237.845,-21228.255,0.0,0.0,0.0,0.0,1
-42402.87,32706.81,-34225.83,-21217.635,0.0,0.0,0.0,0.0,1
-42400.08,32705.46,-34229.655,-21217.23,0.0,0.0,0.0,0.0,1
-42397.515,32706.855,-34230.105,-21217.32,0.0,0.0,0.0,0.0,1
-42403.815,32707.71,-34244.775,-21238.92,0.0,0.0,0.0,0.0,1
-42413.67,32709.33,-34241.355,-21234.105,0.0,0.0,0.0,0.0,1
-42422.625,32707.62,-34245.855,-21225.42,0.0,0.0,0.0,0.0,1
-42412.815,32705.01,-34248.51,-21225.195,0.0,0.0,0.0,0.0,1
-42410.655,32705.055,-34242.705,-21230.055,0.0,0.0,0.0,0.0,1
-42405.435,32703.615,-34231.635,-21220.38,0.0,0.0,0.0,0.0,1
-42397.245,32699.745,-34238.52,-21224.88,0.0,0.0,0.0,0.0,1
-42393.915,32691.78,-34226.01,-21219.165,0.0,0.0,0.0,0.0,1
-42390.36,32695.875,-34223.22,-21226.95,0.0,0.0,0.0,0.0,1
-42405.165,32701.32,-34235.91,-21235.095,0.0,0.0,0.0,0.0,1
-42417.045,32700.285,-34245.765,-21224.745,0.0,0.0,0.0,0.0,1
-42403.365,32699.52,-34249.095,-21240.495,0.0,0.0,0.0,0.0,1
-42399.27,32701.32,-34249.815,-21247.56,0.0,0.0,0.0,0.0,1
-42405.48,32702.31,-34237.71,-21225.24,0.0,0.0,0.0,0.0,1
-42389.325,32703.48,-34223.265,-21219.84,0.0,0.0,0.0,0.0,1
-42392.565,32702.76,-34236.045,-21226.995,0.0,0.0,0.0,0.0,1
-42394.995,32698.935,-34241.445,-21236.85,0.0,0.0,0.0,0.0,1
-42404.04,32688.09,-34248.42,-21248.235,0.0,0.0,0.0,0.0,1
-42412.05,32685.795,-34250.22,-21242.205,0.0,0.0,0.0,0.0,1
-42399.585,32686.65,-34241.625,-21235.905,0.0,0.0,0.0,0.0,1
-42403.86,32686.92,-34243.605,-21235.77,0.0,0.0,0.0,0.0,1
-42401.655,32687.37,-34241.265,-21239.955,0.0,0.0,0.0,0.0,1
-42389.955,32687.37,-34224.84,-21224.655,0.0,0.0,0.0,0.0,1
-42401.79,32684.085,-34237.98,-21227.04,0.0,0.0,0.0,0.0,1
-42415.29,32683.23,-34238.835,-21214.845,0.0,0.0,0.0,0.0,1
-42406.155,32683.275,-34238.295,-21230.505,0.0,0.0,0.0,0.0,1
-42409.62,32684.175,-34246.98,-21240.135,0.0,0.0,0.0,0.0,1
-42403.455,32678.325,-34238.925,-21227.535,0.0,0.0,0.0,0.0,1
-42403.005,32678.28,-34242.12,-21224.25,0.0,0.0,0.0,0.0,1
-42392.88,32682.555,-34227.63,-21212.865,0.0,0.0,0.0,0.0,1
-42393.6,32682.555,-34215.165,-21223.485,0.0,0.0,0.0,0.0,1
-42397.92,32680.485,-34218.405,-21219.345,0.0,0.0,0.0,0.0,1
-42402.24,32683.59,-34235.415,-21225.51,0.0,0.0,0.0,0.0,1
-42412.14,32684.49,-34250.715,-21235.32,0.0,0.0,0.0,0.0,1
-42409.08,32685.48,-34250.85,-21238.245,0.0,0.0,0.0,0.0,1
-42407.145,32684.895,-34253.955,-21237.75,0.0,0.0,0.0,0.0,1
-42424.56,32685.57,-34268.445,-21231.72,0.0,0.0,0.0,0.0,1
-42450.075,32681.385,-34283.88,-21231.045,0.0,0.0,0.0,0.0,1
-42424.11,32684.445,-34236.225,-21218.805,0.0,0.0,0.0,0.0,1
-42379.02,32688.765,-34204.23,-21217.32,0.0,0.0,0.0,0.0,1
-42386.04,32689.08,-34207.83,-21221.82,0.0,0.0,0.0,0.0,1
-42396.705,32689.665,-34217.82,-21218.265,0.0,0.0,0.0,0.0,1
-42403.005,32691.87,-34239.645,-21247.29,0.0,0.0,0.0,0.0,1
-42401.34,32695.425,-34222.14,-21222.405,0.0,0.0,0.0,0.0,1
-42405.12,32694.93,-34236.945,-21229.92,0.0,0.0,0.0,0.0,1
-42413.67,32692.185,-34264.62,-21261.915,0.0,0.0,0.0,0.0,1
-42410.745,32689.17,-34259.94,-21254.49,0.0,0.0,0.0,0.0,1
-42423.66,32680.35,-34258.365,-21239.775,0.0,0.0,0.0,0.0,1
-42414.48,32683.635,-34240.815,-21228.48,0.0,0.0,0.0,0.0,1
-42410.655,32687.73,-34237.53,-21227.355,0.0,0.0,0.0,0.0,1
-42425.865,32687.91,-34249.905,-21224.475,0.0,0.0,0.0,0.0,1
-42420.15,32687.37,-34250.355,-21236.49,0.0,0.0,0.0,0.0,1
-42403.41,32688.135,-34223.895,-21224.025,0.0,0.0,0.0,0.0,1
-42402.06,32686.92,-34216.92,-21209.985,0.0,0.0,0.0,0.0,1
-42426.72,32684.49,-34235.595,-21197.88,0.0,0.0,0.0,0.0,1
-42430.005,32681.52,-34270.56,-21242.43,0.0,0.0,0.0,0.0,1
-42396.93,32680.035,-34254.765,-21261.69,0.0,0.0,0.0,0.0,1
-42393.195,32671.035,-34238.115,-21238.155,0.0,0.0,0.0,0.0,1
-42395.4,32674.635,-34224.075,-21220.65,0.0,0.0,0.0,0.0,1
-42402.915,32678.145,-34237.62,-21234.33,0.0,0.0,0.0,0.0,1
-42405.975,32677.56,-34232.805,-21233.97,0.0,0.0,0.0,0.0,1
-42403.05,32675.535,-34228.89,-21226.365,0.0,0.0,0.0,0.0,1
-42407.235,32673.96,-34242.12,-21237.795,0.0,0.0,0.0,0.0,1
-42414.345,32674.095,-34240.23,-21230.775,0.0,0.0,0.0,0.0,1
-42415.65,32672.385,-34240.185,-21223.98,0.0,0.0,0.0,0.0,1
-42415.83,32670.27,-34230.51,-21218.31,0.0,0.0,0.0,0.0,1
-42415.38,32669.73,-34246.755,-21230.505,0.0,0.0,0.0,0.0,1
-42418.89,32663.295,-34268.985,-21236.895,0.0,0.0,0.0,0.0,1
-42420.42,32662.035,-34289.82,-21239.73,0.0,0.0,0.0,0.0,1
-42408.09,32663.565,-34265.88,-21235.905,0.0,0.0,0.0,0.0,1
-42406.605,32664.465,-34211.61,-21224.565,0.0,0.0,0.0,0.0,1
-42398.28,32662.485,-34191.675,-21221.46,0.0,0.0,0.0,0.0,1
-42402.96,32661.18,-34233.705,-21237.84,0.0,0.0,0.0,0.0,1
-42403.095,32661.855,-34233.12,-21227.265,0.0,0.0,0.0,0.0,1
-42405.795,32661.45,-34235.1,-21228.57,0.0,0.0,0.0,0.0,1
-42412.095,32660.415,-34244.775,-21245.76,0.0,0.0,0.0,0.0,1
-42414.39,32662.305,-34242.39,-21231.585,0.0,0.0,0.0,0.0,1
-42412.41,32661.36,-34244.82,-21230.145,0.0,0.0,0.0,0.0,1
-42417.72,32666.265,-34243.83,-21228.165,0.0,0.0,0.0,0.0,1
-42412.095,32667.885,-34233.975,-21209.715,0.0,0.0,0.0,0.0,1
-42415.65,32666.355,-34249.635,-21226.95,0.0,0.0,0.0,0.0,1
-42414.03,32665.68,-34231.995,-21221.955,0.0,0.0,0.0,0.0,1
-42418.26,32663.97,-34241.49,-21223.935,0.0,0.0,0.0,0.0,1
-42426.18,32660.505,-34280.685,-21256.83,0.0,0.0,0.0,0.0,1
-42423.345,32663.745,-34266.105,-21242.07,0.0,0.0,0.0,0.0,1
-42394.545,32666.625,-34227.855,-21221.28,0.0,0.0,0.0,0.0,1
-42393.42,32667.795,-34213.23,-21215.745,0.0,0.0,0.0,0.0,1
-42401.88,32663.655,-34233.975,-21232.755,0.0,0.0,0.0,0.0,1
-42415.83,32662.485,-34255.62,-21246.525,0.0,0.0,0.0,0.0,1
-42411.78,32660.28,-34233.03,-21215.88,0.0,0.0,0.0,0.0,1
-42406.245,32662.665,-34230.78,-21210.03,0.0,0.0,0.0,0.0,1
-42426.405,32663.385,-34258.005,-21233.115,0.0,0.0,0.0,0.0,1
-42419.295,32663.61,-34262.505,-21251.115,0.0,0.0,0.0,0.0,1
-42402.195,32665.86,-34255.395,-21248.64,0.0,0.0,0.0,0.0,1
-42412.95,32665.86,-34262.955,-21241.98,0.0,0.0,0.0,0.0,1
-42413.04,32665.545,-34243.965,-21233.52,0.0,0.0,0.0,0.0,1
-42411.915,32666.31,-34221.645,-21219.39,0.0,0.0,0.0,0.0,1
-42407.37,32659.92,-34231.23,-21222.63,0.0,0.0,0.0,0.0,1
-42396.795,32661.585,-34227.9,-21224.97,0.0,0.0,0.0,0.0,1
-42401.655,32664.465,-34233.84,-21235.59,0.0,0.0,0.0,0.0,1
-42410.025,32664.195,-34240.995,-21239.73,0.0,0.0,0.0,0.0,1
-42417.765,32662.845,-34258.995,-21240.72,0.0,0.0,0.0,0.0,1
-42426.495,32663.835,-34259.94,-21228.795,0.0,0.0,0.0,0.0,1
-42410.835,32665.455,-34266.105,-21240.585,0.0,0.0,0.0,0.0,1
-42397.875,32664.42,-34256.655,-21240.18,0.0,0.0,0.0,0.0,1
-42401.07,32662.125,-34253.055,-21243.6,0.0,0.0,0.0,0.0,1
-42402.465,32663.7,-34214.22,-21209.67,0.0,0.0,0.0,0.0,1
-42399.81,32656.725,-34220.16,-21214.35,0.0,0.0,0.0,0.0,1
-42410.025,32652.72,-34234.605,-21232.62,0.0,0.0,0.0,0.0,1
-42415.47,32650.11,-34237.305,-21229.515,0.0,0.0,0.0,0.0,1
-42413.805,32654.025,-34239.825,-21227.175,0.0,0.0,0.0,0.0,1
-42408.135,32657.67,-34237.08,-21225.69,0.0,0.0,0.0,0.0,1
-42415.155,32658.57,-34250.085,-21226.365,0.0,0.0,0.0,0.0,1
-42421.815,32658.885,-34248.33,-21216.87,0.0,0.0,0.0,0.0,1
-42412.41,32660.46,-34236.315,-21229.74,0.0,0.0,0.0,0.0,1
-42398.415,32661.27,-34222.815,-21220.065,0.0,0.0,0.0,0.0,1
-42405.57,32661.045,-34234.65,-21223.665,0.0,0.0,0.0,0.0,1
-42415.2,32655.105,-34249.995,-21236.04,0.0,0.0,0.0,0.0,1
-42415.74,32660.19,-34249.14,-21239.46,0.0,0.0,0.0,0.0,1
-42413.94,32663.295,-34256.745,-21245.22,0.0,0.0,0.0,0.0,1
-42417.99,32664.015,-34261.965,-21238.245,0.0,0.0,0.0,0.0,1
-42422.94,32664.735,-34257.6,-21233.34,0.0,0.0,0.0,0.0,1
-42417.27,32663.43,-34250.67,-21236.895,0.0,0.0,0.0,0.0,1
-42415.695,32660.955,-34241.67,-21230.505,0.0,0.0,0.0,0.0,1
-42410.295,32660.55,-34237.125,-21219.12,0.0,0.0,0.0,0.0,1
-42416.055,32658.525,-34240.725,-21218.805,0.0,0.0,0.0,0.0,1
-42412.905,32655.6,-34248.465,-21234.87,0.0,0.0,0.0,0.0,1
-42415.83,32648.67,-34273.08,-21268.485,0.0,0.0,0.0,0.0,1
-42421.23,32647.68,-34270.515,-21257.955,0.0,0.0,0.0,0.0,1
-42406.47,32648.805,-34228.26,-21213.135,0.0,0.0,0.0,0.0,1
-42403.59,32648.13,-34239.105,-21233.43,0.0,0.0,0.0,0.0,1
-42416.37,32646.015,-34252.47,-21250.305,0.0,0.0,0.0,0.0,1
-42423.66,32644.305,-34258.545,-21246.48,0.0,0.0,0.0,0.0,1
-42425.19,32642.685,-34267.365,-21242.52,0.0,0.0,0.0,0.0,1
-42420.15,32645.43,-34257.24,-21231.99,0.0,0.0,0.0,0.0,1
-42409.935,32647.185,-34255.17,-21241.62,0.0,0.0,0.0,0.0,1
-42415.47,32647.185,-34249.815,-21244.365,0.0,0.0,0.0,0.0,1
-42419.7,32639.805,-34244.685,-21231.855,0.0,0.0,0.0,0.0,1
-42424.155,32638.77,-34250.94,-21233.97,0.0,0.0,0.0,0.0,1
-42431.445,32640.03,-34259.49,-21239.505,0.0,0.0,0.0,0.0,1
-42406.965,32642.325,-34237.395,-21233.07,0.0,0.0,0.0,0.0,1
-42410.61,32641.29,-34247.61,-21238.785,0.0,0.0,0.0,0.0,1
-42419.745,32638.635,-34260.57,-21254.94,0.0,0.0,0.0,0.0,1
-42415.38,32637.87,-34245.675,-21252.33,0.0,0.0,0.0,0.0,1
-42415.74,32638.86,-34244.82,-21236.94,0.0,0.0,0.0,0.0,1
-42421.095,32636.88,-34254.405,-21232.215,0.0,0.0,0.0,0.0,1
-42420.915,32636.61,-34279.515,-21240.045,0.0,0.0,0.0,0.0,1
-42416.415,32632.02,-34270.515,-21235.005,0.0,0.0,0.0,0.0,1
-42411.42,32634.99,-34244.685,-21226.635,0.0,0.0,0.0,0.0,1
-42406.83,32637.24,-34220.475,-21213.09,0.0,0.0,0.0,0.0,1
-42403.095,32639.67,-34221.015,-21220.245,0.0,0.0,0.0,0.0,1
-42413.22,32639.535,-34234.11,-21232.89,0.0,0.0,0.0,0.0,1
-42415.92,32638.77,-34240.365,-21234.195,0.0,0.0,0.0,0.0,1
-42414.075,32637.465,-34239.015,-21222.99,0.0,0.0,0.0,0.0,1
-42422.895,32639.04,-34245.18,-21229.38,0.0,0.0,0.0,0.0,1
-42433.02,32639.625,-34257.24,-21236.13,0.0,0.0,0.0,0.0,1
-42424.83,32638.365,-34260.345,-21245.445,0.0,0.0,0.0,0.0,1
-42410.565,32632.605,-34243.74,-21227.85,0.0,0.0,0.0,0.0,1
-42415.515,32633.37,-34247.16,-21230.01,0.0,0.0,0.0,0.0,1
-42413.085,32635.8,-34258.005,-21256.155,0.0,0.0,0.0,0.0,1
-42420.87,32637.555,-34258.23,-21244.68,0.0,0.0,0.0,0.0,1
-42427.17,32637.015,-34264.62,-21238.695,0.0,0.0,0.0,0.0,1
-42412.005,32640.12,-34242.93,-21226.41,0.0,0.0,0.0,0.0,1
-42399.045,32641.065,-34230.915,-21225.6,0.0,0.0,0.0,0.0,1
-42409.89,32641.785,-34254.0,-21246.795,0.0,0.0,0.0,0.0,1
-42427.35,32640.345,-34259.895,-21243.465,0.0,0.0,0.0,0.0,1
-42422.895,32643.045,-34255.35,-21221.055,0.0,0.0,0.0,0.0,1
-42417.315,32637.51,-34270.92,-21247.47,0.0,0.0,0.0,0.0,1
-42418.89,32638.635,-34258.86,-21267.18,0.0,0.0,0.0,0.0,1
-42428.205,32641.02,-34258.86,-21256.245,0.0,0.0,0.0,0.0,1
-42416.415,32645.88,-34242.12,-21238.335,0.0,0.0,0.0,0.0,1
-42401.835,32648.805,-34230.375,-21230.145,0.0,0.0,0.0,0.0,1
-42411.06,32650.11,-34236.45,-21223.755,0.0,0.0,0.0,0.0,1
-42423.795,32647.41,-34269.705,-21249.405,0.0,0.0,0.0,0.0,1
-42436.215,32646.96,-34279.74,-21243.825,0.0,0.0,0.0,0.0,1
-42423.48,32649.48,-34272.18,-21240.72,0.0,0.0,0.0,0.0,1
-42408.09,32650.74,-34236.135,-21229.83,0.0,0.0,0.0,0.0,1
-42406.83,32644.755,-34228.98,-21222.495,0.0,0.0,0.0,0.0,1
-42414.255,32645.61,-34251.795,-21231.405,0.0,0.0,0.0,0.0,1
-42408.27,32649.705,-34246.395,-21235.86,0.0,0.0,0.0,0.0,1
-42401.25,32650.83,-34239.96,-21252.24,0.0,0.0,0.0,0.0,1
-42413.715,32648.94,-34250.715,-21253.365,0.0,0.0,0.0,0.0,1
-42420.465,32651.46,-34256.925,-21250.485,0.0,0.0,0.0,0.0,1
-42424.515,32653.935,-34247.7,-21231.045,0.0,0.0,0.0,0.0,1
-42413.94,32655.24,-34236.135,-21221.82,0.0,0.0,0.0,0.0,1
-42412.095,32656.005,-34249.275,-21227.49,0.0,0.0,0.0,0.0,1
-42413.805,32657.22,-34256.97,-21235.185,0.0,0.0,0.0,0.0,1
-42416.64,32651.145,-34250.715,-21233.115,0.0,0.0,0.0,0.0,1
-42418.35,32652.405,-34252.515,-21235.59,0.0,0.0,0.0,0.0,1
-42419.205,32655.195,-34254.18,-21238.65,0.0,0.0,0.0,0.0,1
-42418.665,32655.42,-34253.055,-21233.565,0.0,0.0,0.0,0.0,1
-42420.33,32655.24,-34255.17,-21234.96,0.0,0.0,0.0,0.0,1
-42425.64,32656.23,-34262.055,-21238.605,0.0,0.0,0.0,0.0,1
-42436.62,32656.05,-34270.245,-21237.795,0.0,0.0,0.0,0.0,1
-42424.29,32658.3,-34255.98,-21224.25,0.0,0.0,0.0,0.0,1
-42409.98,32659.92,-34246.53,-21207.15,0.0,0.0,0.0,0.0,1
-42418.665,32659.02,-34263.63,-21235.815,0.0,0.0,0.0,0.0,1
-42427.845,32651.28,-34270.335,-21273.525,0.0,0.0,0.0,0.0,1
-42423.255,32652.36,-34255.125,-21257.415,0.0,0.0,0.0,0.0,1
-42410.34,32653.98,-34232.76,-21225.645,0.0,0.0,0.0,0.0,1
-42418.305,32654.61,-34262.145,-21256.47,0.0,0.0,0.0,0.0,1
-42420.96,32656.365,-34262.415,-21250.305,0.0,0.0,0.0,0.0,1
-42417.405,32660.1,-34249.995,-21239.145,0.0,0.0,0.0,0.0,1
-42415.515,32663.16,-34251.39,-21232.485,0.0,0.0,0.0,0.0,1
-42415.65,32664.285,-34253.82,-21228.93,0.0,0.0,0.0,0.0,1
-42415.65,32664.285,-34253.82,-21228.93,0.0,0.0,0.0,0.0,1
-42415.65,32664.285,-34253.82,-21228.93,0.0,0.0,0.0,0.0,1
-42415.65,32664.285,-34253.82,-21228.93,0.0,0.0,0.0,0.0,1
-42415.65,32664.285,-34253.82,-21228.93,0.0,0.0,0.0,0.0,1
-42415.65,32664.285,-34253.82,-21228.93,0.0,0.0,0.0,0.0,1
-42415.65,32664.285,-34253.82,-21228.93,0.0,0.0,0.0,0.0,1
-42420.105,32662.53,-34256.7,-21240.405,0.0,0.0,0.0,0.0,1
-42425.73,32665.365,-34265.835,-21244.365,0.0,0.0,0.0,0.0,1
-42434.055,32666.31,-34280.55,-21248.775,0.0,0.0,0.0,0.0,1
-42434.595,32667.48,-34279.785,-21245.94,0.0,0.0,0.0,0.0,1
-42426.27,32664.105,-34275.015,-21244.68,0.0,0.0,0.0,0.0,1
-42409.845,32661.945,-34260.03,-21241.17,0.0,0.0,0.0,0.0,1
-42397.83,32663.16,-34220.07,-21218.805,0.0,0.0,0.0,0.0,1
-42403.995,32665.86,-34218.63,-21219.615,0.0,0.0,0.0,0.0,1
-42412.275,32664.42,-34245.99,-21239.28,0.0,0.0,0.0,0.0,1
-42422.22,32664.015,-34248.015,-21234.6,0.0,0.0,0.0,0.0,1
-42420.015,32662.755,-34252.11,-21234.555,0.0,0.0,0.0,0.0,1
-42426.765,32661.18,-34257.465,-21233.16,0.0,0.0,0.0,0.0,1
-42432.345,32659.38,-34263.09,-21244.725,0.0,0.0,0.0,0.0,1
-42422.895,32658.705,-34263.54,-21242.475,0.0,0.0,0.0,0.0,1
-42413.355,32652.315,-34262.955,-21239.955,0.0,0.0,0.0,0.0,1
-42414.435,32650.785,-34262.19,-21244.545,0.0,0.0,0.0,0.0,1
-42411.195,32651.595,-34247.295,-21238.695,0.0,0.0,0.0,0.0,1
-42421.095,32650.425,-34253.82,-21235.77,0.0,0.0,0.0,0.0,1
-42431.445,32649.255,-34284.105,-21263.535,0.0,0.0,0.0,0.0,1
-42425.28,32653.305,-34275.78,-21260.34,0.0,0.0,0.0,0.0,1
-42423.12,32659.785,-34266.285,-21259.62,0.0,0.0,0.0,0.0,1
-42426.54,32662.35,-34263.99,-21260.88,0.0,0.0,0.0,0.0,1
-42425.73,32661.855,-34270.56,-21258.855,0.0,0.0,0.0,0.0,1
-42429.33,32662.08,-34277.04,-21242.25,0.0,0.0,0.0,0.0,1
-42425.145,32655.51,-34269.255,-21226.995,0.0,0.0,0.0,0.0,1
-42428.115,32653.755,-34286.94,-21247.605,0.0,0.0,0.0,0.0,1
-42425.775,32655.555,-34275.375,-21260.205,0.0,0.0,0.0,0.0,1
-42420.015,32657.67,-34233.39,-21226.005,0.0,0.0,0.0,0.0,1
-42416.1,32657.625,-34233.165,-21219.48,0.0,0.0,0.0,0.0,1
-42425.325,32656.995,-34251.84,-21229.155,0.0,0.0,0.0,0.0,1
-42427.62,32656.725,-34252.83,-21249.81,0.0,0.0,0.0,0.0,1
-42419.7,32660.82,-34253.37,-21239.505,0.0,0.0,0.0,0.0,1
-42433.515,32660.505,-34276.995,-21254.22,0.0,0.0,0.0,0.0,1
-42446.745,32660.01,-34282.845,-21259.215,0.0,0.0,0.0,0.0,1
-42426.63,32653.53,-34260.21,-21251.88,0.0,0.0,0.0,0.0,1
-42410.835,32653.62,-34252.155,-21244.77,0.0,0.0,0.0,0.0,1
-42413.67,32654.385,-34246.53,-21234.915,0.0,0.0,0.0,0.0,1
-42413.13,32655.555,-34248.735,-21235.095,0.0,0.0,0.0,0.0,1
-42422.085,32656.95,-34264.485,-21236.625,0.0,0.0,0.0,0.0,1
-42438.645,32655.015,-34290.225,-21248.37,0.0,0.0,0.0,0.0,1
-42435.585,32653.89,-34287.705,-21258.99,0.0,0.0,0.0,0.0,1
-42415.605,32653.98,-34244.28,-21235.59,0.0,0.0,0.0,0.0,1
-42409.215,32653.89,-34240.95,-21241.17,0.0,0.0,0.0,0.0,1
-42416.955,32655.195,-34247.52,-21237.705,0.0,0.0,0.0,0.0,1
-42414.48,32648.805,-34247.88,-21240.945,0.0,0.0,0.0,0.0,1
-42429.195,32646.06,-34268.58,-21253.95,0.0,0.0,0.0,0.0,1
-42431.04,32648.85,-34264.98,-21250.665,0.0,0.0,0.0,0.0,1
-42428.79,32650.515,-34257.69,-21246.615,0.0,0.0,0.0,0.0,1
-42414.345,32652.18,-34254.72,-21243.915,0.0,0.0,0.0,0.0,1
-42418.755,32654.88,-34272.45,-21264.39,0.0,0.0,0.0,0.0,1
-42419.565,32656.23,-34264.62,-21260.79,0.0,0.0,0.0,0.0,1
-42422.04,32659.245,-34263.63,-21253.23,0.0,0.0,0.0,0.0,1
-42424.065,32661.09,-34258.545,-21238.02,0.0,0.0,0.0,0.0,1
-42424.47,32660.505,-34272.72,-21254.58,0.0,0.0,0.0,0.0,1
-42429.06,32653.935,-34275.105,-21257.055,0.0,0.0,0.0,0.0,1
-42425.82,32655.06,-34260.975,-21243.78,0.0,0.0,0.0,0.0,1
-42426.72,32655.51,-34265.565,-21247.065,0.0,0.0,0.0,0.0,1
-42424.965,32656.23,-34258.59,-21238.74,0.0,0.0,0.0,0.0,1
-42428.7,32655.51,-34271.055,-21248.1,0.0,0.0,0.0,0.0,1
-42430.725,32656.995,-34278.255,-21258.09,0.0,0.0,0.0,0.0,1
-42429.69,32657.895,-34272.135,-21251.07,0.0,0.0,0.0,0.0,1
-42429.465,32660.055,-34263.045,-21246.165,0.0,0.0,0.0,0.0,1
-42441.66,32659.335,-34271.325,-21246.39,0.0,0.0,0.0,0.0,1
-42435.27,32659.155,-34273.98,-21249.72,0.0,0.0,0.0,0.0,1
-42429.87,32652.405,-34266.555,-21243.645,0.0,0.0,0.0,0.0,1
-42437.475,32650.02,-34277.895,-21245.895,0.0,0.0,0.0,0.0,1
-42431.265,32649.975,-34285.725,-21245.31,0.0,0.0,0.0,0.0,1
-42418.53,32647.5,-34263.045,-21218.805,0.0,0.0,0.0,0.0,1
-42416.46,32644.53,-34240.23,-21206.88,0.0,0.0,0.0,0.0,1
-42412.545,32647.275,-34235.73,-21235.14,0.0,0.0,0.0,0.0,1
-42412.545,32648.58,-34242.57,-21246.345,0.0,0.0,0.0,0.0,1
-42413.715,32650.83,-34243.47,-21241.935,0.0,0.0,0.0,0.0,1
-42435.54,32650.11,-34262.1,-21250.89,0.0,0.0,0.0,0.0,1
-42438.24,32647.32,-34275.06,-21255.165,0.0,0.0,0.0,0.0,1
-42427.53,32642.505,-34269.39,-21248.325,0.0,0.0,0.0,0.0,1
-42424.875,32642.865,-34266.105,-21252.195,0.0,0.0,0.0,0.0,1
-42424.47,32641.47,-34262.865,-21244.275,0.0,0.0,0.0,0.0,1
-42432.57,32642.415,-34255.8,-21235.005,0.0,0.0,0.0,0.0,1
-42442.965,32642.55,-34278.57,-21267.225,0.0,0.0,0.0,0.0,1
-42445.62,32641.11,-34283.43,-21258.54,0.0,0.0,0.0,0.0,1
-42408.18,32640.12,-34265.79,-21249.0,0.0,0.0,0.0,0.0,1
-42405.57,32638.86,-34265.565,-21253.815,0.0,0.0,0.0,0.0,1
-42423.93,32636.79,-34266.915,-21249.495,0.0,0.0,0.0,0.0,1
-42423.84,32635.485,-34263.54,-21245.265,0.0,0.0,0.0,0.0,1
-42415.875,32630.04,-34258.545,-21243.195,0.0,0.0,0.0,0.0,1
-42418.53,32630.445,-34258.14,-21238.38,0.0,0.0,0.0,0.0,1
-42422.4,32631.12,-34268.13,-21248.955,0.0,0.0,0.0,0.0,1
-42428.835,32632.155,-34273.755,-21254.49,0.0,0.0,0.0,0.0,1
-42427.62,32632.335,-34271.82,-21251.16,0.0,0.0,0.0,0.0,1
-42433.92,32633.28,-34269.57,-21251.07,0.0,0.0,0.0,0.0,1
-42437.25,32633.28,-34277.67,-21255.84,0.0,0.0,0.0,0.0,1
-42430.365,32632.695,-34286.49,-21254.895,0.0,0.0,0.0,0.0,1
-42425.73,32631.885,-34279.92,-21248.64,0.0,0.0,0.0,0.0,1
-42427.89,32635.485,-34272.54,-21246.975,0.0,0.0,0.0,0.0,1
-42429.06,32644.53,-34278.3,-21254.445,0.0,0.0,0.0,0.0,1
-42433.065,32654.475,-34267.725,-21250.89,0.0,0.0,0.0,0.0,1
-42441.255,32658.435,-34280.73,-21260.25,0.0,0.0,0.0,0.0,1
-42434.955,32662.98,-34266.06,-21239.19,0.0,0.0,0.0,0.0,1
-42416.28,32666.085,-34263.945,-21241.305,0.0,0.0,0.0,0.0,1
-42422.31,32666.13,-34266.195,-21236.085,0.0,0.0,0.0,0.0,1
-42429.87,32665.32,-34253.82,-21235.32,0.0,0.0,0.0,0.0,1
-42427.395,32666.22,-34253.685,-21249.54,0.0,0.0,0.0,0.0,1
-42434.865,32666.13,-34272.855,-21253.995,0.0,0.0,0.0,0.0,1
-42431.94,32664.42,-34272.54,-21248.685,0.0,0.0,0.0,0.0,1
-42419.34,32661.09,-34251.255,-21227.805,0.0,0.0,0.0,0.0,1
-42418.44,32663.025,-34248.42,-21225.15,0.0,0.0,0.0,0.0,1
-42423.165,32664.645,-34255.305,-21242.655,0.0,0.0,0.0,0.0,1
-42423.705,32664.33,-34258.545,-21257.73,0.0,0.0,0.0,0.0,1
-42424.065,32663.61,-34255.44,-21244.32,0.0,0.0,0.0,0.0,1
-42429.465,32667.12,-34255.755,-21248.505,0.0,0.0,0.0,0.0,1
-42426.855,32667.93,-34257.645,-21240.09,0.0,0.0,0.0,0.0,1
-42434.28,32665.77,-34293.825,-21267.72,0.0,0.0,0.0,0.0,1
-42439.14,32665.41,-34285.005,-21258.36,0.0,0.0,0.0,0.0,1
-42432.615,32667.84,-34273.665,-21248.055,0.0,0.0,0.0,0.0,1
-42424.785,32663.565,-34272.945,-21247.65,0.0,0.0,0.0,0.0,1
-42427.17,32665.5,-34265.205,-21251.295,0.0,0.0,0.0,0.0,1
-42429.285,32668.74,-34254.855,-21239.64,0.0,0.0,0.0,0.0,1
-42427.395,32668.065,-34269.48,-21250.305,0.0,0.0,0.0,0.0,1
-42427.26,32668.11,-34276.905,-21273.84,0.0,0.0,0.0,0.0,1
-42426.495,32668.02,-34263.45,-21254.31,0.0,0.0,0.0,0.0,1
-42427.26,32664.825,-34281.54,-21266.73,0.0,0.0,0.0,0.0,1
-42426.135,32667.21,-34272.72,-21249.405,0.0,0.0,0.0,0.0,1
-42427.395,32668.605,-34267.59,-21235.635,0.0,0.0,0.0,0.0,1
-42434.955,32665.095,-34281.855,-21261.645,0.0,0.0,0.0,0.0,1
-42437.43,32658.03,-34290.945,-21260.52,0.0,0.0,0.0,0.0,1
-42431.49,32659.92,-34288.695,-21259.215,0.0,0.0,0.0,0.0,1
-42426.27,32662.8,-34270.02,-21253.32,0.0,0.0,0.0,0.0,1
-42426.945,32664.645,-34267.365,-21254.67,0.0,0.0,0.0,0.0,1
-42424.56,32665.545,-34265.43,-21249.405,0.0,0.0,0.0,0.0,1
-42429.33,32665.725,-34261.47,-21248.19,0.0,0.0,0.0,0.0,1
-42431.715,32665.5,-34262.46,-21248.235,0.0,0.0,0.0,0.0,1
-42436.755,32667.345,-34270.515,-21245.085,0.0,0.0,0.0,0.0,1
-42433.695,32664.87,-34273.53,-21240.0,0.0,0.0,0.0,0.0,1
-42432.885,32666.4,-34277.895,-21249.405,0.0,0.0,0.0,0.0,1
-42426.72,32665.455,-34271.82,-21257.145,0.0,0.0,0.0,0.0,1
-42422.67,32667.525,-34262.46,-21251.43,0.0,0.0,0.0,0.0,1
-42424.335,32669.235,-34261.605,-21240.54,0.0,0.0,0.0,0.0,1
-42435.045,32666.985,-34257.825,-21219.795,0.0,0.0,0.0,0.0,1
-42440.625,32664.78,-34275.015,-21246.75,0.0,0.0,0.0,0.0,1
-42423.12,32663.385,-34264.35,-21249.495,0.0,0.0,0.0,0.0,1
-42430.095,32661.18,-34273.215,-21264.21,0.0,0.0,0.0,0.0,1
-42438.87,32663.745,-34271.415,-21251.25,0.0,0.0,0.0,0.0,1
-42426.855,32665.41,-34270.245,-21248.28,0.0,0.0,0.0,0.0,1
-42419.52,32665.77,-34259.94,-21235.32,0.0,0.0,0.0,0.0,1
-42432.39,32658.84,-34278.255,-21234.195,0.0,0.0,0.0,0.0,1
-42434.1,32659.47,-34287.57,-21249.54,0.0,0.0,0.0,0.0,1
-42430.725,32660.955,-34293.555,-21293.28,0.0,0.0,0.0,0.0,1
-42429.465,32660.91,-34265.25,-21261.915,0.0,0.0,0.0,0.0,1
-42432.615,32660.145,-34260.795,-21253.815,0.0,0.0,0.0,0.0,1
-42429.555,32659.92,-34262.145,-21249.63,0.0,0.0,0.0,0.0,1
-42421.5,32658.165,-34268.985,-21249.72,0.0,0.0,0.0,0.0,1
-42418.98,32659.65,-34270.245,-21249.855,0.0,0.0,0.0,0.0,1
-42422.04,32660.64,-34276.77,-21255.705,0.0,0.0,0.0,0.0,1
-42421.905,32659.785,-34270.065,-21249.09,0.0,0.0,0.0,0.0,1
-42418.17,32654.16,-34252.11,-21234.06,0.0,0.0,0.0,0.0,1
-42422.67,32652.945,-34265.43,-21254.22,0.0,0.0,0.0,0.0,1
-42430.59,32653.755,-34277.58,-21256.92,0.0,0.0,0.0,0.0,1
-42434.19,32655.015,-34287.075,-21261.015,0.0,0.0,0.0,0.0,1
-42428.88,32657.445,-34279.425,-21252.78,0.0,0.0,0.0,0.0,1
-42428.07,32658.435,-34281.36,-21259.44,0.0,0.0,0.0,0.0,1
-42430.095,32658.21,-34290.36,-21277.62,0.0,0.0,0.0,0.0,1
-42430.5,32660.505,-34270.155,-21253.095,0.0,0.0,0.0,0.0,1
-42434.325,32659.47,-34269.255,-21254.22,0.0,0.0,0.0,0.0,1
-42421.14,32658.3,-34270.56,-21274.02,0.0,0.0,0.0,0.0,1
-42417.855,32650.245,-34269.795,-21271.725,0.0,0.0,0.0,0.0,1
-42418.485,32651.19,-34260.48,-21247.92,0.0,0.0,0.0,0.0,1
-42417.315,32652.855,-34258.995,-21234.33,0.0,0.0,0.0,0.0,1
-42428.88,32652.09,-34277.58,-21260.61,0.0,0.0,0.0,0.0,1
-42432.75,32650.83,-34281.72,-21257.865,0.0,0.0,0.0,0.0,1
-42429.195,32647.005,-34279.155,-21253.05,0.0,0.0,0.0,0.0,1
-42428.61,32639.535,-34281.99,-21255.93,0.0,0.0,0.0,0.0,1
-42424.11,32640.705,-34274.745,-21245.4,0.0,0.0,0.0,0.0,1
-42430.05,32641.785,-34275.15,-21236.49,0.0,0.0,0.0,0.0,1
-42436.98,32642.055,-34274.25,-21242.925,0.0,0.0,0.0,0.0,1
-42425.955,32634.99,-34260.615,-21241.62,0.0,0.0,0.0,0.0,1
-42416.865,32633.055,-34257.105,-21265.425,0.0,0.0,0.0,0.0,1
-42428.835,32633.64,-34271.37,-21270.69,0.0,0.0,0.0,0.0,1
-42435.09,32637.51,-34275.735,-21260.79,0.0,0.0,0.0,0.0,1
-42422.535,32639.67,-34265.97,-21247.2,0.0,0.0,0.0,0.0,1
-42427.755,32639.31,-34259.445,-21230.37,0.0,0.0,0.0,0.0,1
-42433.065,32639.085,-34279.65,-21263.49,0.0,0.0,0.0,0.0,1
-42437.115,32640.3,-34294.275,-21279.195,0.0,0.0,0.0,0.0,1
-42427.395,32642.46,-34286.4,-21261.555,0.0,0.0,0.0,0.0,1
-42431.76,32642.955,-34289.91,-21268.53,0.0,0.0,0.0,0.0,1
-42430.68,32636.745,-34277.535,-21262.635,0.0,0.0,0.0,0.0,1
-42428.7,32638.32,-34271.64,-21247.515,0.0,0.0,0.0,0.0,1
-42433.02,32639.805,-34277.22,-21255.21,0.0,0.0,0.0,0.0,1
-42443.955,32638.275,-34288.29,-21272.355,0.0,0.0,0.0,0.0,1
-42434.46,32638.41,-34273.71,-21260.655,0.0,0.0,0.0,0.0,1
-42426.765,32639.49,-34273.125,-21259.305,0.0,0.0,0.0,0.0,1
-42422.445,32638.995,-34266.195,-21243.555,0.0,0.0,0.0,0.0,1
-42421.005,32637.645,-34276.005,-21252.51,0.0,0.0,0.0,0.0,1
-42436.08,32636.07,-34294.77,-21268.44,0.0,0.0,0.0,0.0,1
-42435.18,32635.395,-34294.59,-21271.455,0.0,0.0,0.0,0.0,1
-42419.745,32629.14,-34279.29,-21261.105,0.0,0.0,0.0,0.0,1
-42418.035,32627.34,-34285.05,-21264.3,0.0,0.0,0.0,0.0,1
-42423.66,32627.205,-34290.225,-21268.62,0.0,0.0,0.0,0.0,1
-42431.355,32627.565,-34283.565,-21263.85,0.0,0.0,0.0,0.0,1
-42432.39,32626.665,-34267.005,-21256.29,0.0,0.0,0.0,0.0,1
-42428.205,32628.105,-34263.63,-21256.65,0.0,0.0,0.0,0.0,1
-42413.895,32628.465,-34265.34,-21268.44,0.0,0.0,0.0,0.0,1
-42421.095,32626.755,-34271.415,-21261.69,0.0,0.0,0.0,0.0,1
-42432.48,32623.65,-34291.215,-21267.63,0.0,0.0,0.0,0.0,1
-42439.995,32621.31,-34291.395,-21266.955,0.0,0.0,0.0,0.0,1
-42424.425,32613.885,-34269.57,-21253.68,0.0,0.0,0.0,0.0,1
-42416.055,32612.67,-34266.06,-21251.61,0.0,0.0,0.0,0.0,1
-42423.975,32612.355,-34277.22,-21259.215,0.0,0.0,0.0,0.0,1
-42427.665,32614.02,-34269.075,-21248.91,0.0,0.0,0.0,0.0,1
-42420.33,32614.56,-34269.075,-21249.855,0.0,0.0,0.0,0.0,1
-42428.16,32616.63,-34285.86,-21258.9,0.0,0.0,0.0,0.0,1
-42434.595,32615.595,-34294.41,-21258.405,0.0,0.0,0.0,0.0,1
-42435.765,32615.505,-34284.465,-21255.39,0.0,0.0,0.0,0.0,1
-42434.1,32614.83,-34277.85,-21252.42,0.0,0.0,0.0,0.0,1
-42436.08,32613.525,-34278.525,-21241.08,0.0,0.0,0.0,0.0,1
-42426.99,32607.54,-34277.985,-21258.09,0.0,0.0,0.0,0.0,1
-42428.61,32606.37,-34282.89,-21277.44,0.0,0.0,0.0,0.0,1
-42429.87,32607.54,-34284.555,-21269.43,0.0,0.0,0.0,0.0,1
-42434.55,32609.07,-34277.175,-21263.22,0.0,0.0,0.0,0.0,1
-42440.445,32611.05,-34268.355,-21245.805,0.0,0.0,0.0,0.0,1
-42448.59,32612.085,-34278.93,-21246.615,0.0,0.0,0.0,0.0,1
-42437.025,32613.12,-34272.945,-21252.69,0.0,0.0,0.0,0.0,1
-42415.155,32611.95,-34257.42,-21239.055,0.0,0.0,0.0,0.0,1
-42417.72,32610.87,-34281.72,-21266.46,0.0,0.0,0.0,0.0,1
-42430.05,32612.4,-34288.065,-21261.465,0.0,0.0,0.0,0.0,1
-42436.44,32605.155,-34291.08,-21255.12,0.0,0.0,0.0,0.0,1
-42435.945,32607.315,-34287.165,-21252.15,0.0,0.0,0.0,0.0,1
-42435.405,32610.06,-34274.43,-21262.05,0.0,0.0,0.0,0.0,1
-42433.065,32611.995,-34270.74,-21262.905,0.0,0.0,0.0,0.0,1
-42432.93,32612.4,-34295.355,-21277.395,0.0,0.0,0.0,0.0,1
-42442.83,32611.905,-34299.99,-21274.11,0.0,0.0,0.0,0.0,1
-42437.7,32611.77,-34290.495,-21266.865,0.0,0.0,0.0,0.0,1
-42424.29,32614.29,-34281.765,-21263.445,0.0,0.0,0.0,0.0,1
-42423.795,32614.515,-34280.64,-21252.195,0.0,0.0,0.0,0.0,1
-42426.945,32611.23,-34269.435,-21246.66,0.0,0.0,0.0,0.0,1
-42426.045,32602.095,-34276.68,-21264.93,0.0,0.0,0.0,0.0,1
-42435.405,32600.925,-34280.595,-21262.905,0.0,0.0,0.0,0.0,1
-42426.81,32602.635,-34273.215,-21256.155,0.0,0.0,0.0,0.0,1
-42425.145,32600.16,-34270.02,-21251.205,0.0,0.0,0.0,0.0,1
-42428.565,32597.01,-34280.685,-21256.47,0.0,0.0,0.0,0.0,1
-42435.045,32596.38,-34291.35,-21263.445,0.0,0.0,0.0,0.0,1
-42430.005,32596.425,-34292.79,-21277.53,0.0,0.0,0.0,0.0,1
-42432.165,32599.215,-34271.19,-21251.745,0.0,0.0,0.0,0.0,1
-42429.69,32602.32,-34260.57,-21248.865,0.0,0.0,0.0,0.0,1
-42421.815,32604.57,-34255.44,-21246.75,0.0,0.0,0.0,0.0,1
-42424.515,32598.495,-34269.795,-21257.415,0.0,0.0,0.0,0.0,1
-42427.755,32598.855,-34277.265,-21260.52,0.0,0.0,0.0,0.0,1
-42433.02,32600.025,-34280.64,-21255.3,0.0,0.0,0.0,0.0,1
-42438.915,32601.42,-34288.785,-21260.205,0.0,0.0,0.0,0.0,1
-42439.14,32602.59,-34277.175,-21249.18,0.0,0.0,0.0,0.0,1
-42439.545,32601.33,-34288.29,-21258.9,0.0,0.0,0.0,0.0,1
-42439.455,32600.7,-34294.23,-21264.975,0.0,0.0,0.0,0.0,1
-42444.63,32602.455,-34304.22,-21276.63,0.0,0.0,0.0,0.0,1
-42438.645,32602.635,-34294.14,-21267.225,0.0,0.0,0.0,0.0,1
-42435.18,32603.58,-34275.375,-21246.345,0.0,0.0,0.0,0.0,1
-42416.55,32599.935,-34260.345,-21233.43,0.0,0.0,0.0,0.0,1
-42412.59,32601.555,-34252.83,-21236.85,0.0,0.0,0.0,0.0,1
-42421.77,32603.445,-34253.46,-21237.21,0.0,0.0,0.0,0.0,1
-42428.205,32604.03,-34261.515,-21234.645,0.0,0.0,0.0,0.0,1
-42433.02,32602.545,-34278.21,-21261.915,0.0,0.0,0.0,0.0,1
-42432.57,32602.95,-34294.185,-21292.29,0.0,0.0,0.0,0.0,1
-42432.165,32603.94,-34293.375,-21277.17,0.0,0.0,0.0,0.0,1
-42437.205,32604.12,-34289.82,-21263.67,0.0,0.0,0.0,0.0,1
-42441.48,32601.87,-34305.75,-21272.58,0.0,0.0,0.0,0.0,1
-42436.98,32602.365,-34302.69,-21272.715,0.0,0.0,0.0,0.0,1
-42436.845,32597.235,-34287.48,-21264.12,0.0,0.0,0.0,0.0,1
-42442.515,32600.475,-34278.93,-21263.67,0.0,0.0,0.0,0.0,1
-42438.555,32603.895,-34278.165,-21257.235,0.0,0.0,0.0,0.0,1
-42443.055,32605.02,-34287.435,-21259.35,0.0,0.0,0.0,0.0,1
-42445.17,32604.93,-34287.255,-21254.04,0.0,0.0,0.0,0.0,1
-42423.255,32605.965,-34285.455,-21260.385,0.0,0.0,0.0,0.0,1
-42420.735,32606.055,-34288.425,-21266.01,0.0,0.0,0.0,0.0,1
-42433.605,32606.73,-34289.19,-21263.625,0.0,0.0,0.0,0.0,1
-42437.295,32606.505,-34296.48,-21262.455,0.0,0.0,0.0,0.0,1
-42433.065,32607.18,-34289.64,-21253.815,0.0,0.0,0.0,0.0,1
-42421.05,32601.87,-34269.84,-21257.955,0.0,0.0,0.0,0.0,1
-42430.905,32601.51,-34277.4,-21278.16,0.0,0.0,0.0,0.0,1
-42460.38,32600.295,-34301.16,-21271.725,0.0,0.0,0.0,0.0,1
-42444.72,32599.215,-34282.305,-21258.72,0.0,0.0,0.0,0.0,1
-42416.775,32599.305,-34263.315,-21244.635,0.0,0.0,0.0,0.0,1
-42424.335,32600.97,-34275.465,-21246.435,0.0,0.0,0.0,0.0,1
-42444.495,32601.69,-34283.34,-21252.825,0.0,0.0,0.0,0.0,1
-42453.855,32602.995,-34299.54,-21271.14,0.0,0.0,0.0,0.0,1
-42447.915,32604.615,-34292.115,-21261.195,0.0,0.0,0.0,0.0,1
-42432.3,32608.305,-34292.07,-21270.825,0.0,0.0,0.0,0.0,1
-42418.62,32623.2,-34276.32,-21267.72,0.0,0.0,0.0,0.0,1
-42428.88,32630.76,-34295.175,-21270.555,0.0,0.0,0.0,0.0,1
-42450.48,32631.345,-34327.215,-21272.76,0.0,0.0,0.0,0.0,1
-42449.175,32632.245,-34325.865,-21274.74,0.0,0.0,0.0,0.0,1
-42423.48,32633.685,-34293.555,-21279.96,0.0,0.0,0.0,0.0,1
-42411.24,32634.765,-34247.655,-21260.07,0.0,0.0,0.0,0.0,1
-42426.495,32634.36,-34248.51,-21240.9,0.0,0.0,0.0,0.0,1
-42432.795,32632.515,-34270.605,-21256.515,0.0,0.0,0.0,0.0,1
-42437.925,32628.78,-34285.14,-21262.455,0.0,0.0,0.0,0.0,1
-42445.215,32628.825,-34293.42,-21265.29,0.0,0.0,0.0,0.0,1
-42425.235,32629.905,-34279.83,-21258.99,0.0,0.0,0.0,0.0,1
-42421.635,32632.695,-34278.48,-21256.11,0.0,0.0,0.0,0.0,1
-42444.99,32633.19,-34303.14,-21262.725,0.0,0.0,0.0,0.0,1
-42435.225,32636.475,-34312.815,-21261.645,0.0,0.0,0.0,0.0,1
-42442.695,32637.015,-34333.47,-21274.065,0.0,0.0,0.0,0.0,1
-42434.73,32640.525,-34284.24,-21258.045,0.0,0.0,0.0,0.0,1
-42419.565,32643.72,-34243.425,-21257.64,0.0,0.0,0.0,0.0,1
-42424.065,32645.295,-34271.865,-21298.095,0.0,0.0,0.0,0.0,1
-42424.515,32645.025,-34273.845,-21273.39,0.0,0.0,0.0,0.0,1
-42421.635,32644.8,-34260.12,-21238.155,0.0,0.0,0.0,0.0,1
-42428.34,32637.825,-34273.575,-21242.745,0.0,0.0,0.0,0.0,1
-42439.275,32637.42,-34298.37,-21266.595,0.0,0.0,0.0,0.0,1
-42441.93,32638.455,-34308.72,-21283.605,0.0,0.0,0.0,0.0,1
-42434.415,32640.75,-34291.845,-21264.48,0.0,0.0,0.0,0.0,1
-42433.605,32640.57,-34294.41,-21264.435,0.0,0.0,0.0,0.0,1
-42437.61,32641.515,-34308.225,-21263.265,0.0,0.0,0.0,0.0,1
-42436.845,32641.695,-34301.97,-21261.015,0.0,0.0,0.0,0.0,1
-42421.095,32641.47,-34280.595,-21262.275,0.0,0.0,0.0,0.0,1
-42421.905,32642.37,-34277.76,-21267.45,0.0,0.0,0.0,0.0,1
-42424.695,32644.305,-34266.24,-21250.08,0.0,0.0,0.0,0.0,1
-42424.2,32642.505,-34268.13,-21250.935,0.0,0.0,0.0,0.0,1
-42436.755,32643.9,-34281.045,-21258.405,0.0,0.0,0.0,0.0,1
-42444.0,32643.495,-34293.78,-21270.24,0.0,0.0,0.0,0.0,1
-42453.855,32643.585,-34292.25,-21262.59,0.0,0.0,0.0,0.0,1
-42438.15,32643.405,-34293.825,-21265.29,0.0,0.0,0.0,0.0,1
-42426.945,32643.495,-34294.68,-21265.29,0.0,0.0,0.0,0.0,1
-42427.755,32642.55,-34304.175,-21255.57,0.0,0.0,0.0,0.0,1
-42438.015,32643.765,-34313.535,-21267.855,0.0,0.0,0.0,0.0,1
-42421.905,32645.97,-34292.025,-21283.56,0.0,0.0,0.0,0.0,1
-42419.205,32647.68,-34257.195,-21253.005,0.0,0.0,0.0,0.0,1
-42429.105,32646.375,-34268.805,-21256.56,0.0,0.0,0.0,0.0,1
-42432.57,32652.585,-34284.015,-21271.905,0.0,0.0,0.0,0.0,1
-42430.5,32653.8,-34283.295,-21270.015,0.0,0.0,0.0,0.0,1
-42438.105,32657.13,-34287.66,-21265.065,0.0,0.0,0.0,0.0,1
-42451.65,32658.885,-34293.375,-21263.625,0.0,0.0,0.0,0.0,1
-42440.13,32661.27,-34288.56,-21259.845,0.0,0.0,0.0,0.0,1
-42426.9,32661.72,-34287.435,-21263.715,0.0,0.0,0.0,0.0,1
-42433.695,32660.505,-34277.805,-21251.295,0.0,0.0,0.0,0.0,1
-42434.01,32658.48,-34295.535,-21277.98,0.0,0.0,0.0,0.0,1
-42430.68,32659.47,-34294.365,-21285.81,0.0,0.0,0.0,0.0,1
-42425.145,32654.88,-34273.44,-21257.82,0.0,0.0,0.0,0.0,1
-42433.155,32654.565,-34296.345,-21281.265,0.0,0.0,0.0,0.0,1
-42441.12,32655.915,-34297.965,-21271.23,0.0,0.0,0.0,0.0,1
-42448.095,32655.375,-34308.09,-21267.045,0.0,0.0,0.0,0.0,1
-42446.205,32653.8,-34330.23,-21297.195,0.0,0.0,0.0,0.0,1
-42437.655,32655.96,-34300.485,-21269.88,0.0,0.0,0.0,0.0,1
-42427.89,32655.645,-34281.495,-21233.52,0.0,0.0,0.0,0.0,1
-42440.04,32654.43,-34286.49,-21267.855,0.0,0.0,0.0,0.0,1
-42444.18,32653.305,-34283.97,-21309.57,0.0,0.0,0.0,0.0,1
-42428.97,32651.955,-34283.88,-21293.64,0.0,0.0,0.0,0.0,1
-42428.25,32646.51,-34287.795,-21270.465,0.0,0.0,0.0,0.0,1
-42439.14,32648.22,-34297.47,-21266.595,0.0,0.0,0.0,0.0,1
-42429.87,32650.605,-34280.82,-21269.43,0.0,0.0,0.0,0.0,1
-42426.225,32650.425,-34274.16,-21270.465,0.0,0.0,0.0,0.0,1
-42434.73,32648.175,-34282.845,-21265.83,0.0,0.0,0.0,0.0,1
-42443.01,32645.97,-34292.25,-21262.95,0.0,0.0,0.0,0.0,1
-42432.165,32645.115,-34293.465,-21266.28,0.0,0.0,0.0,0.0,1
-42432.165,32646.15,-34290.405,-21270.33,0.0,0.0,0.0,0.0,1
-42442.02,32646.15,-34299.135,-21269.475,0.0,0.0,0.0,0.0,1
-42440.49,32648.175,-34294.86,-21262.545,0.0,0.0,0.0,0.0,1
-42433.92,32644.125,-34269.93,-21252.465,0.0,0.0,0.0,0.0,1
-42420.465,32644.485,-34264.17,-21241.8,0.0,0.0,0.0,0.0,1
-42429.645,32642.28,-34283.34,-21265.47,0.0,0.0,0.0,0.0,1
-42435.81,32641.11,-34289.955,-21284.415,0.0,0.0,0.0,0.0,1
-42433.335,32641.155,-34291.08,-21270.015,0.0,0.0,0.0,0.0,1
-42428.34,32640.435,-34298.1,-21276.9,0.0,0.0,0.0,0.0,1
-42429.24,32636.52,-34297.47,-21272.67,0.0,0.0,0.0,0.0,1
-42434.235,32635.35,-34299.945,-21275.28,0.0,0.0,0.0,0.0,1
-42432.345,32635.26,-34288.47,-21267.585,0.0,0.0,0.0,0.0,1
-42435.36,32635.305,-34278.03,-21259.035,0.0,0.0,0.0,0.0,1
-42434.235,32630.715,-34288.38,-21276.09,0.0,0.0,0.0,0.0,1
-42433.38,32631.12,-34299.45,-21279.96,0.0,0.0,0.0,0.0,1
-42427.575,32631.93,-34283.7,-21266.28,0.0,0.0,0.0,0.0,1
-42433.2,32632.155,-34289.415,-21275.28,0.0,0.0,0.0,0.0,1
-42444.225,32632.515,-34298.55,-21278.925,0.0,0.0,0.0,0.0,1
-42424.515,32633.955,-34282.485,-21262.23,0.0,0.0,0.0,0.0,1
-42423.435,32631.975,-34292.97,-21278.34,0.0,0.0,0.0,0.0,1
-42442.92,32630.58,-34297.65,-21282.93,0.0,0.0,0.0,0.0,1
-42445.215,32630.58,-34293.465,-21273.165,0.0,0.0,0.0,0.0,1
-42428.25,32629.905,-34289.955,-21268.845,0.0,0.0,0.0,0.0,1
-42410.61,32624.55,-34275.915,-21260.52,0.0,0.0,0.0,0.0,1
-42420.78,32620.455,-34286.355,-21256.38,0.0,0.0,0.0,0.0,1
-42430.68,32619.825,-34286.895,-21256.11,0.0,0.0,0.0,0.0,1
-42432.57,32618.925,-34297.38,-21283.47,0.0,0.0,0.0,0.0,1
-42435.27,32618.25,-34295.715,-21274.965,0.0,0.0,0.0,0.0,1
-42431.715,32616.63,-34293.375,-21260.79,0.0,0.0,0.0,0.0,1
-42431.265,32614.29,-34285.365,-21245.715,0.0,0.0,0.0,0.0,1
-42432.12,32613.795,-34280.19,-21252.645,0.0,0.0,0.0,0.0,1
-42436.215,32613.435,-34286.04,-21272.58,0.0,0.0,0.0,0.0,1
-42437.34,32614.02,-34283.475,-21261.24,0.0,0.0,0.0,0.0,1
-42439.14,32607.36,-34289.55,-21271.59,0.0,0.0,0.0,0.0,1
-42434.595,32608.395,-34287.12,-21271.32,0.0,0.0,0.0,0.0,1
-42440.04,32610.42,-34283.565,-21269.07,0.0,0.0,0.0,0.0,1
-42436.665,32608.485,-34299.225,-21282.615,0.0,0.0,0.0,0.0,1
-42435.99,32602.05,-34309.44,-21275.055,0.0,0.0,0.0,0.0,1
-42438.195,32604.345,-34318.17,-21281.13,0.0,0.0,0.0,0.0,1
-42421.05,32608.8,-34282.305,-21264.075,0.0,0.0,0.0,0.0,1
-42416.145,32609.07,-34264.62,-21242.88,0.0,0.0,0.0,0.0,1
-42422.31,32604.75,-34281.09,-21270.195,0.0,0.0,0.0,0.0,1
-42434.865,32601.78,-34294.995,-21284.235,0.0,0.0,0.0,0.0,1
-42434.82,32596.695,-34299.0,-21278.34,0.0,0.0,0.0,0.0,1
-42441.21,32596.56,-34308.18,-21281.04,0.0,0.0,0.0,0.0,1
-42453.63,32596.02,-34314.795,-21278.16,0.0,0.0,0.0,0.0,1
-42440.805,32597.145,-34312.23,-21275.73,0.0,0.0,0.0,0.0,1
-42423.435,32598.495,-34304.895,-21276.0,0.0,0.0,0.0,0.0,1
-42414.255,32602.32,-34277.58,-21256.695,0.0,0.0,0.0,0.0,1
-42427.44,32603.175,-34283.205,-21275.37,0.0,0.0,0.0,0.0,1
-42433.11,32603.76,-34286.625,-21269.925,0.0,0.0,0.0,0.0,1
-42434.415,32602.05,-34281.405,-21258.72,0.0,0.0,0.0,0.0,1
-42432.705,32602.86,-34279.695,-21270.645,0.0,0.0,0.0,0.0,1
-42437.88,32600.655,-34281.225,-21265.65,0.0,0.0,0.0,0.0,1
-42427.98,32603.985,-34300.98,-21282.39,0.0,0.0,0.0,0.0,1
-42425.64,32607.72,-34299.45,-21279.915,0.0,0.0,0.0,0.0,1
-42432.57,32608.44,-34295.94,-21273.525,0.0,0.0,0.0,0.0,1
-42439.95,32608.575,-34299.09,-21273.21,0.0,0.0,0.0,0.0,1
-42450.075,32609.295,-34307.1,-21277.8,0.0,0.0,0.0,0.0,1
-42439.5,32610.285,-34302.195,-21275.28,0.0,0.0,0.0,0.0,1
-42428.97,32611.32,-34291.395,-21270.825,0.0,0.0,0.0,0.0,1
-42432.03,32611.635,-34284.645,-21264.255,0.0,0.0,0.0,0.0,1
-42430.905,32611.77,-34282.53,-21260.79,0.0,0.0,0.0,0.0,1
-42435.495,32604.975,-34295.4,-21269.7,0.0,0.0,0.0,0.0,1
-42438.465,32605.38,-34293.015,-21268.44,0.0,0.0,0.0,0.0,1
-42434.685,32607.045,-34291.53,-21259.08,0.0,0.0,0.0,0.0,1
-42428.52,32605.92,-34282.8,-21242.295,0.0,0.0,0.0,0.0,1
-42427.53,32604.165,-34292.97,-21279.06,0.0,0.0,0.0,0.0,1
-42428.205,32604.885,-34292.61,-21281.265,0.0,0.0,0.0,0.0,1
-42430.545,32606.235,-34291.62,-21277.53,0.0,0.0,0.0,0.0,1
-42444.045,32608.08,-34296.615,-21266.73,0.0,0.0,0.0,0.0,1
-42449.22,32608.53,-34302.42,-21262.86,0.0,0.0,0.0,0.0,1
-42435.585,32608.62,-34297.515,-21264.48,0.0,0.0,0.0,0.0,1
-42439.32,32603.58,-34302.645,-21276.315,0.0,0.0,0.0,0.0,1
-42444.18,32602.905,-34297.695,-21287.43,0.0,0.0,0.0,0.0,1
-42426.36,32602.5,-34278.525,-21269.97,0.0,0.0,0.0,0.0,1
-42420.465,32601.285,-34271.865,-21266.145,0.0,0.0,0.0,0.0,1
-42433.2,32598.63,-34286.175,-21272.04,0.0,0.0,0.0,0.0,1
-42443.415,32600.07,-34289.73,-21261.33,0.0,0.0,0.0,0.0,1
-42436.215,32600.745,-34296.75,-21277.665,0.0,0.0,0.0,0.0,1
-42438.96,32601.285,-34299.09,-21292.83,0.0,0.0,0.0,0.0,1
-42454.575,32601.42,-34298.55,-21267.405,0.0,0.0,0.0,0.0,1
-42461.64,32603.76,-34314.885,-21277.035,0.0,0.0,0.0,0.0,1
-42436.755,32601.33,-34293.24,-21272.13,0.0,0.0,0.0,0.0,1
-42421.185,32603.895,-34281.72,-21269.295,0.0,0.0,0.0,0.0,1
-42424.65,32606.865,-34286.13,-21268.8,0.0,0.0,0.0,0.0,1
-42437.025,32607.27,-34308.63,-21287.295,0.0,0.0,0.0,0.0,1
-42442.965,32607.135,-34303.995,-21278.745,0.0,0.0,0.0,0.0,1
-42441.795,32606.55,-34300.305,-21273.93,0.0,0.0,0.0,0.0,1
-42435.18,32605.785,-34287.165,-21268.305,0.0,0.0,0.0,0.0,1
-42426.09,32605.47,-34283.565,-21270.645,0.0,0.0,0.0,0.0,1
-42432.39,32604.66,-34299.63,-21281.04,0.0,0.0,0.0,0.0,1
-42435.225,32604.21,-34299.9,-21275.28,0.0,0.0,0.0,0.0,1
-42443.955,32599.8,-34297.155,-21266.37,0.0,0.0,0.0,0.0,1
-42448.815,32598.72,-34303.59,-21266.145,0.0,0.0,0.0,0.0,1
-42445.71,32597.415,-34301.205,-21275.82,0.0,0.0,0.0,0.0,1
-42456.105,32599.575,-34298.28,-21271.14,0.0,0.0,0.0,0.0,1
-42449.76,32600.34,-34300.845,-21277.71,0.0,0.0,0.0,0.0,1
-42427.755,32603.58,-34286.31,-21261.15,0.0,0.0,0.0,0.0,1
-42426.405,32603.4,-34285.725,-21256.38,0.0,0.0,0.0,0.0,1
-42438.33,32601.735,-34299.675,-21278.115,0.0,0.0,0.0,0.0,1
-42437.43,32599.98,-34300.71,-21284.64,0.0,0.0,0.0,0.0,1
-42433.92,32600.295,-34286.175,-21279.33,0.0,0.0,0.0,0.0,1
-42434.55,32595.93,-34281.54,-21277.485,0.0,0.0,0.0,0.0,1
-42439.095,32598.09,-34294.32,-21269.295,0.0,0.0,0.0,0.0,1
-42446.61,32600.43,-34315.965,-21274.065,0.0,0.0,0.0,0.0,1
-42456.555,32601.645,-34326.045,-21288.6,0.0,0.0,0.0,0.0,1
-42456.465,32602.005,-34318.305,-21303.63,0.0,0.0,0.0,0.0,1
-42433.965,32601.33,-34277.355,-21275.595,0.0,0.0,0.0,0.0,1
-42431.67,32600.34,-34277.355,-21271.05,0.0,0.0,0.0,0.0,1
-42437.925,32599.845,-34289.055,-21279.375,0.0,0.0,0.0,0.0,1
-42434.325,32599.71,-34288.38,-21278.52,0.0,0.0,0.0,0.0,1
-42433.83,32599.485,-34284.33,-21268.89,0.0,0.0,0.0,0.0,1
-42437.475,32592.33,-34284.105,-21264.48,0.0,0.0,0.0,0.0,1
-42457.23,32589.315,-34306.11,-21277.215,0.0,0.0,0.0,0.0,1
-42455.7,32587.92,-34321.32,-21288.24,0.0,0.0,0.0,0.0,1
-42440.22,32587.74,-34306.65,-21279.33,0.0,0.0,0.0,0.0,1
-42439.995,32583.87,-34307.955,-21281.805,0.0,0.0,0.0,0.0,1
-42438.195,32585.13,-34292.745,-21269.7,0.0,0.0,0.0,0.0,1
-42437.52,32587.56,-34290.9,-21258.675,0.0,0.0,0.0,0.0,1
-42442.65,32588.01,-34305.84,-21276.54,0.0,0.0,0.0,0.0,1
-42440.445,32586.03,-34302.69,-21301.605,0.0,0.0,0.0,0.0,1
-42435.09,32586.57,-34277.67,-21285.045,0.0,0.0,0.0,0.0,1
-42431.985,32580.855,-34289.37,-21290.13,0.0,0.0,0.0,0.0,1
-42449.58,32581.98,-34301.97,-21280.005,0.0,0.0,0.0,0.0,1
-42446.745,32583.915,-34302.645,-21274.83,0.0,0.0,0.0,0.0,1
