CH1,CH2,CH3,CH4,CH5,CH6,CH7,CH8,Target
14844.195,10405.71,9532.395,3001.5899999999997,0.0,0.0,0.0,0.0,8
8221.41,18487.035,2769.66,-3642.39,0.0,0.0,0.0,0.0,8
8589.645,20391.21,2862.54,-3953.34,0.0,0.0,0.0,0.0,8
14387.445,15371.505,8711.324999999999,1868.175,0.0,0.0,0.0,0.0,8
21724.785,6164.6849999999995,16020.45,8733.105,0.0,0.0,0.0,0.0,8
20186.595,-2686.815,16758.899999999998,11860.47,0.0,0.0,0.0,0.0,8
13018.455,-5744.429999999999,11680.965,9156.06,0.0,0.0,0.0,0.0,8
22058.235,-814.77,17155.17,10494.72,0.0,0.0,0.0,0.0,8
16630.38,8664.705,11010.645,4217.13,0.0,0.0,0.0,0.0,8
9235.575,17142.165,3555.81,-2959.785,0.0,0.0,0.0,0.0,8
7259.31,19228.635,1286.595,-5787.315,0.0,0.0,0.0,0.0,8
11739.915,18418.005,5776.2,-1136.2949999999998,0.0,0.0,0.0,0.0,8
18974.34,10241.01,12950.64,5682.78,0.0,0.0,0.0,0.0,8
23418.54,703.485,18499.905,11881.17,0.0,0.0,0.0,0.0,8
15047.955,-5543.28,13710.33,11039.04,0.0,0.0,0.0,0.0,8
21420.72,-2156.355,17126.01,11007.225,0.0,0.0,0.0,0.0,8
18504.945,6952.95,12597.525,5521.635,0.0,0.0,0.0,0.0,8
10932.75,15959.385,4990.905,-1670.8049999999998,0.0,0.0,0.0,0.0,8
6606.45,17515.485,411.66,-6734.115,0.0,0.0,0.0,0.0,8
9555.795,19331.415,3222.45,-3981.42,0.0,0.0,0.0,0.0,8
16333.11,14336.01,9990.135,2725.605,0.0,0.0,0.0,0.0,8
23145.795,4871.61,17186.445,9710.595,0.0,0.0,0.0,0.0,8
19143.63,-3174.39,16874.954999999998,12851.73,0.0,0.0,0.0,0.0,8
20373.345,-2721.06,17015.76,11737.035,0.0,0.0,0.0,0.0,8
20210.715,5344.38,14130.855,6806.205,0.0,0.0,0.0,0.0,8
12749.895,14731.29,6581.835,-255.78,0.0,0.0,0.0,0.0,8
6576.389999999999,17394.704999999998,265.86,-6045.795,0.0,0.0,0.0,0.0,8
7735.41,17801.1,1074.285,-5773.094999999999,0.0,0.0,0.0,0.0,8
13693.14,18208.98,7144.695,-115.515,0.0,0.0,0.0,0.0,8
21137.85,9156.96,14608.935,6913.44,0.0,0.0,0.0,0.0,8
22294.485,99.09,18441.99,12613.005,0.0,0.0,0.0,0.0,8
19299.645,-2491.02,16847.505,12450.735,0.0,0.0,0.0,0.0,8
21650.625,3855.51,15572.115,8139.06,0.0,0.0,0.0,0.0,8
14725.395,13293.18,8331.93,1250.235,0.0,0.0,0.0,0.0,8
7534.395,18932.985,1075.815,-5278.7699999999995,0.0,0.0,0.0,0.0,8
6391.9349999999995,16618.095,-448.155,-6604.65,0.0,0.0,0.0,0.0,8
11244.015,20941.02,4431.96,-2814.93,0.0,0.0,0.0,0.0,8
18506.34,13366.935,11710.395,4067.145,0.0,0.0,0.0,0.0,8
23476.004999999997,3886.83,18074.385,10886.445,0.0,0.0,0.0,0.0,8
19232.505,-1408.95,17259.975,12817.53,0.0,0.0,0.0,0.0,8
22388.129999999997,2647.665,16794.809999999998,9434.97,0.0,0.0,0.0,0.0,8
16713.899999999998,11723.085,10104.705,2795.31,0.0,0.0,0.0,0.0,8
9162.945,19746.81,2524.9049999999997,-4183.065,0.0,0.0,0.0,0.0,8
5377.86,16720.02,-1391.6699999999998,-6874.65,0.0,0.0,0.0,0.0,8
9011.07,21590.055,1964.7,-4999.365,0.0,0.0,0.0,0.0,8
15918.255,17563.545,8916.525,1374.48,0.0,0.0,0.0,0.0,8
22599.99,8029.17,16133.31,8432.82,0.0,0.0,0.0,0.0,8
18544.32,436.185,16168.905,11918.25,0.0,0.0,0.0,0.0,8
20593.755,1694.835,16305.345,10249.47,0.0,0.0,0.0,0.0,8
18802.08,9998.235,11971.125,4414.23,0.0,0.0,0.0,0.0,8
11324.61,19206.405,4399.155,-2669.4449999999997,0.0,0.0,0.0,0.0,8
5580.585,20097.63,-1449.495,-7976.79,0.0,0.0,0.0,0.0,8
7231.185,21236.31,-55.169999999999995,-7166.61,0.0,0.0,0.0,0.0,8
13452.885,21183.21,6260.04,-1257.345,0.0,0.0,0.0,0.0,8
20815.695,11942.505,13721.355,5782.905,0.0,0.0,0.0,0.0,8
20184.48,2974.635,16425.495,10912.365,0.0,0.0,0.0,0.0,8
18056.43,1182.465,15193.935,10426.23,0.0,0.0,0.0,0.0,8
20451.195,8047.799999999999,13700.385,6002.099999999999,0.0,0.0,0.0,0.0,8
13413.015,17472.195,6359.67,-923.265,0.0,0.0,0.0,0.0,8
6432.21,22653.675,-699.255,-7734.735,0.0,0.0,0.0,0.0,8
5882.175,21115.845,-1558.53,-9121.455,0.0,0.0,0.0,0.0,8
11090.43,23924.16,3687.12,-3880.8,0.0,0.0,0.0,0.0,8
18493.515,15657.93,11066.175,3135.24,0.0,0.0,0.0,0.0,8
21222.27,6098.219999999999,15890.895,9222.84,0.0,0.0,0.0,0.0,8
14291.46,1290.375,12535.92,9187.74,0.0,0.0,0.0,0.0,8
20594.655,6056.82,14531.175,7233.795,0.0,0.0,0.0,0.0,8
15577.785,15257.97,8337.6,831.06,0.0,0.0,0.0,0.0,8
8121.014999999999,23655.825,860.0849999999999,-6300.855,0.0,0.0,0.0,0.0,8
5076.179999999999,24226.695,-2463.48,-10162.44,0.0,0.0,0.0,0.0,8
8965.484999999999,25924.185,1367.595,-6243.84,0.0,0.0,0.0,0.0,8
16140.78,19129.5,8489.61,612.3149999999999,0.0,0.0,0.0,0.0,8
21390.12,9481.77,14702.355,7189.5599999999995,0.0,0.0,0.0,0.0,8
11277.36,2161.035,9425.835,6551.594999999999,0.0,0.0,0.0,0.0,8
17013.42,4179.96,12625.29,6906.42,0.0,0.0,0.0,0.0,8
17789.985,12790.71,10415.97,2638.44,0.0,0.0,0.0,0.0,8
10351.575,22171.635,2891.52,-4413.78,0.0,0.0,0.0,0.0,8
4824.99,28489.815,-2647.485,-9989.55,0.0,0.0,0.0,0.0,8
6979.905,28844.145,-644.265,-8194.59,0.0,0.0,0.0,0.0,8
13813.02,22340.385,6037.469999999999,-1768.95,0.0,0.0,0.0,0.0,8
20382.615,12785.04,12938.13,4974.3,0.0,0.0,0.0,0.0,8
11266.785,3272.94,8287.785,4735.17,0.0,0.0,0.0,0.0,8
9041.985,2027.025,6792.12,3737.835,0.0,0.0,0.0,0.0,8
18792.405,9880.38,11755.62,4156.425,0.0,0.0,0.0,0.0,8
12792.735,19417.23,5144.849999999999,-2382.93,0.0,0.0,0.0,0.0,8
5948.054999999999,27956.835,-1684.53,-8839.574999999999,0.0,0.0,0.0,0.0,8
5735.295,30257.28,-2041.875,-9295.155,0.0,0.0,0.0,0.0,8
11660.715,25035.75,3706.245,-4023.9,0.0,0.0,0.0,0.0,8
18922.86,15752.34,11011.725,2831.9849999999997,0.0,0.0,0.0,0.0,8
14773.995,5539.679999999999,10217.565,5115.554999999999,0.0,0.0,0.0,0.0,8
3894.66,815.895,2970.45,1662.885,0.0,0.0,0.0,0.0,8
16280.595,6529.41,10720.125,4392.224999999999,0.0,0.0,0.0,0.0,8
15236.46,16158.33,7458.344999999999,-326.295,0.0,0.0,0.0,0.0,8
7847.73,25432.155,34.56,-7308.045,0.0,0.0,0.0,0.0,8
5078.115,30602.205,-2796.5699999999997,-10062.765,0.0,0.0,0.0,0.0,8
9650.52,27216.135,1573.155,-6087.33,0.0,0.0,0.0,0.0,8
16992.54,18424.08,8818.47,621.9,0.0,0.0,0.0,0.0,8
17863.605,8283.465,11748.465,5193.179999999999,0.0,0.0,0.0,0.0,8
3611.655,859.05,2655.63,1472.13,0.0,0.0,0.0,0.0,8
11731.86,3096.765,7991.91,3580.2,0.0,0.0,0.0,0.0,8
17380.98,11951.325,9601.29,1646.685,0.0,0.0,0.0,0.0,8
10336.32,21381.21,2329.56,-5282.865,0.0,0.0,0.0,0.0,8
5358.105,28553.085,-2686.365,-10069.92,0.0,0.0,0.0,0.0,8
8044.695,27761.085,-169.965,-7823.655,0.0,0.0,0.0,0.0,8
14969.7,20024.595,6630.3,-1547.775,0.0,0.0,0.0,0.0,8
19709.775,10378.035,12253.005,4478.804999999999,0.0,0.0,0.0,0.0,8
6685.0199999999995,1780.56,4670.775,2382.255,0.0,0.0,0.0,0.0,8
6860.16,827.235,4855.95,2362.77,0.0,0.0,0.0,0.0,8
18227.79,7443.09,10904.49,3248.37,0.0,0.0,0.0,0.0,8
12993.3,16875.36,4805.46,-3057.255,0.0,0.0,0.0,0.0,8
6464.295,25333.245,-1734.57,-9245.295,0.0,0.0,0.0,0.0,8
6859.9349999999995,27232.245,-1471.365,-9110.52,0.0,0.0,0.0,0.0,8
12992.895,21123.225,4508.054999999999,-3610.08,0.0,0.0,0.0,0.0,8
19686.105,11820.825,11425.995,3038.625,0.0,0.0,0.0,0.0,8
11766.51,2961.27,7941.69,3778.11,0.0,0.0,0.0,0.0,8
3399.705,-19.62,2502.81,1311.615,0.0,0.0,0.0,0.0,8
16827.3,3398.4449999999997,10689.795,4055.85,0.0,0.0,0.0,0.0,8
15578.145,12333.87,7244.639999999999,-828.855,0.0,0.0,0.0,0.0,8
8297.595,21463.515,-49.77,-7692.525,0.0,0.0,0.0,0.0,8
6163.83,25978.725,-2257.74,-9867.735,0.0,0.0,0.0,0.0,8
11026.305,22065.66,2431.44,-5581.349999999999,0.0,0.0,0.0,0.0,8
18239.985,13258.44,9588.645,1070.37,0.0,0.0,0.0,0.0,8
16752.195,4265.1449999999995,10888.335,4723.695,0.0,0.0,0.0,0.0,8
2898.135,34.65,2116.125,1138.59,0.0,0.0,0.0,0.0,8
13007.115,827.73,8619.255,3682.395,0.0,0.0,0.0,0.0,8
17712.225,8336.205,9362.115,1136.16,0.0,0.0,0.0,0.0,8
10563.435,17681.76,2025.045,-5822.639999999999,0.0,0.0,0.0,0.0,8
6053.58,24373.62,-2482.92,-10126.665,0.0,0.0,0.0,0.0,8
9176.445,22978.62,474.255,-7468.92,0.0,0.0,0.0,0.0,8
16124.265,15054.21,7293.645,-1170.45,0.0,0.0,0.0,0.0,8
19877.58,5933.61,12283.47,4531.05,0.0,0.0,0.0,0.0,8
5766.885,415.98,4017.06,2044.845,0.0,0.0,0.0,0.0,8
8178.21,-330.255,5632.335,2586.105,0.0,0.0,0.0,0.0,8
18608.67,4875.929999999999,10661.355,2669.355,0.0,0.0,0.0,0.0,8
12837.33,14152.59,4200.3,-3807.135,0.0,0.0,0.0,0.0,8
6630.165,22344.615,-2034.315,-9716.805,0.0,0.0,0.0,0.0,8
7531.469999999999,23643.405,-1258.425,-9095.13,0.0,0.0,0.0,0.0,8
13818.15,17225.19,4838.985,-3490.02,0.0,0.0,0.0,0.0,8
20159.955,8129.205,11525.085,3003.255,0.0,0.0,0.0,0.0,8
11085.21,1115.91,7421.13,3475.575,0.0,0.0,0.0,0.0,8
4573.755,-504.405,3281.31,1544.265,0.0,0.0,0.0,0.0,8
17861.985,2440.62,10802.61,3247.47,0.0,0.0,0.0,0.0,8
14950.17,11322.72,6151.86,-2268.63,0.0,0.0,0.0,0.0,8
7784.505,20306.97,-985.5,-8962.92,0.0,0.0,0.0,0.0,8
6278.3099999999995,24242.625,-2565.225,-10534.455,0.0,0.0,0.0,0.0,8
11424.285,19888.515,2413.98,-5963.445,0.0,0.0,0.0,0.0,8
18493.785,11129.625,9451.575,591.525,0.0,0.0,0.0,0.0,8
16479.27,2757.645,10541.025,4277.205,0.0,0.0,0.0,0.0,8
3291.2549999999997,-228.645,2393.235,1193.805,0.0,0.0,0.0,0.0,8
14345.505,1025.82,9075.87,3126.105,0.0,0.0,0.0,0.0,8
16728.704999999998,8929.619999999999,7968.33,-593.28,0.0,0.0,0.0,0.0,8
9438.57,18248.895,597.8249999999999,-7512.03,0.0,0.0,0.0,0.0,8
5493.87,24481.215,-3368.205,-11307.33,0.0,0.0,0.0,0.0,8
9000.81,22563.72,-21.015,-8273.52,0.0,0.0,0.0,0.0,8
15939.405,14574.735,6784.83,-1999.17,0.0,0.0,0.0,0.0,8
19675.98,5585.67,11806.245,3761.505,0.0,0.0,0.0,0.0,8
5930.955,282.51,4112.46,1975.905,0.0,0.0,0.0,0.0,8
10306.62,438.345,6746.849999999999,2577.285,0.0,0.0,0.0,0.0,8
17838.809999999998,7133.8949999999995,9229.095,756.855,0.0,0.0,0.0,0.0,8
11291.76,16409.835,2329.02,-5896.71,0.0,0.0,0.0,0.0,8
5414.8949999999995,24320.879999999997,-3515.355,-11432.97,0.0,0.0,0.0,0.0,8
6851.384999999999,25046.504999999997,-2209.545,-10311.345,0.0,0.0,0.0,0.0,8
13214.205,18406.08,3990.51,-4603.095,0.0,0.0,0.0,0.0,8
19724.13,9359.73,10750.005,1932.84,0.0,0.0,0.0,0.0,8
11752.83,1559.7,7810.335,3509.5049999999997,0.0,0.0,0.0,0.0,8
7591.995,23.715,5305.59,2318.31,0.0,0.0,0.0,0.0,8
18381.96,5467.7699999999995,10222.38,1980.0,0.0,0.0,0.0,0.0,8
13140.675,14723.685,4069.17,-4295.43,0.0,0.0,0.0,0.0,8
6142.23,23593.32,-2884.455,-10848.105,0.0,0.0,0.0,0.0,8
5160.96,26996.175,-3923.73,-11921.805,0.0,0.0,0.0,0.0,8
10491.12,22314.42,1224.0449999999998,-7201.304999999999,0.0,0.0,0.0,0.0,8
17596.53,13602.735,8248.86,-669.9599999999999,0.0,0.0,0.0,0.0,8
19115.37,4333.365,12534.345,5203.17,0.0,0.0,0.0,0.0,8
10930.5,-322.515,8839.035,5235.885,0.0,0.0,0.0,0.0,8
19093.86,4375.305,11481.255,3366.855,0.0,0.0,0.0,0.0,8
14918.22,13336.605,5721.12,-2747.43,0.0,0.0,0.0,0.0,8
7637.445,22524.03,-1537.065,-9601.785,0.0,0.0,0.0,0.0,8
4256.01,28008.36,-4940.37,-12921.975,0.0,0.0,0.0,0.0,8
8055.674999999999,25787.295,-1257.435,-9566.415,0.0,0.0,0.0,0.0,8
14931.135,17801.145,5488.38,-3318.93,0.0,0.0,0.0,0.0,8
21859.245,8684.505,12831.12,3499.605,0.0,0.0,0.0,0.0,8
21986.82,2328.5699999999997,17187.03,7023.195,0.0,0.0,0.0,0.0,8
21850.695,4310.01,14212.44,4587.48,0.0,0.0,0.0,0.0,8
16680.96,12281.355,7361.46,-1306.035,0.0,0.0,0.0,0.0,8
9358.335,21465.9,99.585,-8101.53,0.0,0.0,0.0,0.0,8
3839.85,28167.254999999997,-5369.985,-13671.855,0.0,0.0,0.0,0.0,8
5799.69,28441.26,-3547.7549999999997,-12065.445,0.0,0.0,0.0,0.0,8
12246.705,22303.935,2729.835,-5922.9,0.0,0.0,0.0,0.0,8
19514.925,13303.305,9889.515,754.65,0.0,0.0,0.0,0.0,8
25762.5,5490.585,15839.955,6378.389999999999,0.0,0.0,0.0,0.0,8
24689.97,4880.295,14813.775,5516.054999999999,0.0,0.0,0.0,0.0,8
18362.88,11322.36,8939.025,107.955,0.0,0.0,0.0,0.0,8
11250.63,20272.995,1877.265,-6469.605,0.0,0.0,0.0,0.0,8
4618.035,22676.445,-4669.605,-11007.09,0.0,0.0,0.0,0.0,8
4579.5599999999995,19273.95,-5070.195,-10017.27,0.0,0.0,0.0,0.0,8
9658.035,25421.535,46.934999999999995,-8334.045,0.0,0.0,0.0,0.0,8
16632.899999999998,18114.795,7008.48,-1952.865,0.0,0.0,0.0,0.0,8
23697.18,9333.36,13991.67,4608.72,0.0,0.0,0.0,0.0,8
24912.855,6084.405,15280.065,5904.315,0.0,0.0,0.0,0.0,8
19994.04,10647.765,10485.99,1511.28,0.0,0.0,0.0,0.0,8
13039.56,19261.08,3595.77,-4880.295,0.0,0.0,0.0,0.0,8
5404.59,21676.995,-2339.775,-8676.81,0.0,0.0,0.0,0.0,8
2230.47,12205.395,-2523.06,-5132.295,0.0,0.0,0.0,0.0,8
7250.49,25812.72,-1746.765,-8938.17,0.0,0.0,0.0,0.0,8
14013.495,23406.93,4480.514999999999,-4151.88,0.0,0.0,0.0,0.0,8
21446.37,14305.05,11804.49,2691.36,0.0,0.0,0.0,0.0,8
25066.17,8626.005,15430.23,6148.844999999999,0.0,0.0,0.0,0.0,8
21563.46,10975.95,12040.335,3054.645,0.0,0.0,0.0,0.0,8
14843.205,18911.745,5405.355,-3086.91,0.0,0.0,0.0,0.0,8
7437.24,24706.125,-1193.49,-8482.59,0.0,0.0,0.0,0.0,8
1602.1799999999998,11577.96,-2203.02,-4739.264999999999,0.0,0.0,0.0,0.0,8
4760.099999999999,20525.67,-2563.245,-7877.205,0.0,0.0,0.0,0.0,8
11401.02,25826.58,1947.15,-6313.679999999999,0.0,0.0,0.0,0.0,8
18629.55,17165.745,9079.245,316.17,0.0,0.0,0.0,0.0,8
24263.55,9638.01,14687.82,5592.6449999999995,0.0,0.0,0.0,0.0,8
22635.045,9545.895,13169.97,4246.38,0.0,0.0,0.0,0.0,8
16507.53,16258.41,7136.099999999999,-1330.65,0.0,0.0,0.0,0.0,8
9430.11,24229.845,297.675,-7508.07,0.0,0.0,0.0,0.0,8
2341.08,15220.395,-2454.48,-6122.88,0.0,0.0,0.0,0.0,8
2799.3599999999997,14245.155,-2590.515,-6062.849999999999,0.0,0.0,0.0,0.0,8
8887.59,26001.539999999997,-369.09,-8153.639999999999,0.0,0.0,0.0,0.0,8
15851.025,18965.115,6397.83,-2074.77,0.0,0.0,0.0,0.0,8
22660.155,10480.815,13117.635,4210.47,0.0,0.0,0.0,0.0,8
23193.27,7956.99,13746.51,4869.2699999999995,0.0,0.0,0.0,0.0,8
18020.745,12977.325,8688.69,212.625,0.0,0.0,0.0,0.0,8
11191.68,21467.835,1903.68,-6080.67,0.0,0.0,0.0,0.0,8
3819.33,19518.03,-2666.115,-7858.349999999999,0.0,0.0,0.0,0.0,8
1489.41,9537.075,-2161.62,-4236.48,0.0,0.0,0.0,0.0,8
6481.035,23965.83,-2148.12,-8900.414999999999,0.0,0.0,0.0,0.0,8
13218.21,20580.57,3910.455,-4174.11,0.0,0.0,0.0,0.0,8
20438.01,11670.21,11026.215,2450.52,0.0,0.0,0.0,0.0,8
23385.33,6707.115,13994.235,5274.315,0.0,0.0,0.0,0.0,8
19562.58,9645.48,10281.87,1869.525,0.0,0.0,0.0,0.0,8
12926.925,17667.945,3704.4,-4235.22,0.0,0.0,0.0,0.0,8
5690.88,21874.905,-2268.315,-8718.3,0.0,0.0,0.0,0.0,8
1007.235,8677.035,-2045.835,-3961.53,0.0,0.0,0.0,0.0,8
4233.33,19345.185,-3052.395,-8194.365,0.0,0.0,0.0,0.0,8
10656.135,21949.335,1496.4299999999998,-6217.065,0.0,0.0,0.0,0.0,8
17846.73,13210.695,8565.705,337.275,0.0,0.0,0.0,0.0,8
22988.385,6179.535,13666.545,5134.455,0.0,0.0,0.0,0.0,8
20943.585,6715.349999999999,11700.675,3349.935,0.0,0.0,0.0,0.0,8
14717.205,13727.07,5564.925,-2334.06,0.0,0.0,0.0,0.0,8
7656.255,21156.255,-1070.865,-8179.74,0.0,0.0,0.0,0.0,8
1415.835,11388.285,-2495.97,-5327.6849999999995,0.0,0.0,0.0,0.0,8
2355.255,13274.235,-2937.105,-6200.19,0.0,0.0,0.0,0.0,8
8203.23,22288.004999999997,-726.66,-7890.884999999999,0.0,0.0,0.0,0.0,8
15243.255,14585.265,6119.73,-1732.455,0.0,0.0,0.0,0.0,8
21886.425,6219.179999999999,12660.84,4372.785,0.0,0.0,0.0,0.0,8
21959.73,4224.195,12798.36,4548.6449999999995,0.0,0.0,0.0,0.0,8
16532.235,9710.82,7469.685,-379.71,0.0,0.0,0.0,0.0,8
9541.53,18304.605,570.78,-6760.665,0.0,0.0,0.0,0.0,8
2528.505,15437.88,-3087.315,-7367.715,0.0,0.0,0.0,0.0,8
1145.655,8731.17,-2450.16,-4418.055,0.0,0.0,0.0,0.0,8
5886.9,21159.0,-2530.665,-8898.975,0.0,0.0,0.0,0.0,8
12806.775,15962.805,3796.605,-3719.745,0.0,0.0,0.0,0.0,8
20237.355,6922.304999999999,11087.64,3055.41,0.0,0.0,0.0,0.0,8
22753.485,2386.62,13611.375,5452.38,0.0,0.0,0.0,0.0,8
18460.53,5960.655,9436.5,1605.33,0.0,0.0,0.0,0.0,8
11513.43,14396.355,2593.26,-4747.59,0.0,0.0,0.0,0.0,8
4210.29,18067.635,-3092.13,-8702.865,0.0,0.0,0.0,0.0,8
606.78,7311.87,-2171.295,-3781.395,0.0,0.0,0.0,0.0,8
3798.855,18291.69,-3502.89,-8614.215,0.0,0.0,0.0,0.0,8
10370.16,17632.35,1507.86,-5712.974999999999,0.0,0.0,0.0,0.0,8
17820.0,8586.404999999999,8816.535,1066.05,0.0,0.0,0.0,0.0,8
22579.785,1920.105,13526.46,5501.025,0.0,0.0,0.0,0.0,8
19927.395,3226.95,10963.305,3140.91,0.0,0.0,0.0,0.0,8
13400.325,10811.565,4485.0599999999995,-2892.33,0.0,0.0,0.0,0.0,8
6186.15,18153.54,-2148.66,-8643.105,0.0,0.0,0.0,0.0,8
791.595,9599.085,-2765.43,-5155.065,0.0,0.0,0.0,0.0,8
2218.3199999999997,14194.08,-3561.705,-7245.315,0.0,0.0,0.0,0.0,8
8139.375,19199.7,-647.145,-7586.054999999999,0.0,0.0,0.0,0.0,8
15432.03,10671.345,6475.23,-1064.115,0.0,0.0,0.0,0.0,8
21972.06,2403.855,12916.485,4961.745,0.0,0.0,0.0,0.0,8
21474.45,1037.88,12487.5,4613.76,0.0,0.0,0.0,0.0,8
15667.65,7092.54,6787.125,-660.465,0.0,0.0,0.0,0.0,8
8517.105,15860.88,-245.88,-7153.74,0.0,0.0,0.0,0.0,8
1737.405,13561.785,-3575.745,-7410.915,0.0,0.0,0.0,0.0,8
1009.17,9501.39,-2912.895,-5123.295,0.0,0.0,0.0,0.0,8
5894.28,19758.645,-2592.315,-8963.19,0.0,0.0,0.0,0.0,8
13048.335,13148.73,4081.995,-3271.995,0.0,0.0,0.0,0.0,8
20498.94,4050.27,11434.185,3582.27,0.0,0.0,0.0,0.0,8
22432.365,63.585,13407.795,5490.36,0.0,0.0,0.0,0.0,8
17782.245,4220.1449999999995,8833.68,1261.53,0.0,0.0,0.0,0.0,8
10671.435,12908.385,1833.525,-5258.385,0.0,0.0,0.0,0.0,8
3359.97,16723.8,-3766.185,-9077.265,0.0,0.0,0.0,0.0,8
469.665,7821.45,-2625.8399999999997,-4329.09,0.0,0.0,0.0,0.0,8
3933.945,18445.455,-3751.56,-9173.16,0.0,0.0,0.0,0.0,8
10691.505,15741.405,1807.56,-5375.835,0.0,0.0,0.0,0.0,8
18365.535,6490.17,9332.685,1623.78,0.0,0.0,0.0,0.0,8
22732.605,141.435,13672.8,5724.8099999999995,0.0,0.0,0.0,0.0,8
19670.085,1932.435,10714.545,3018.33,0.0,0.0,0.0,0.0,8
12901.86,9843.075,4034.34,-3188.6099999999997,0.0,0.0,0.0,0.0,8
5524.92,17384.265,-2775.645,-9086.265,0.0,0.0,0.0,0.0,8
503.055,9843.48,-3237.705,-5575.95,0.0,0.0,0.0,0.0,8
2321.775,15340.815,-3971.295,-8072.82,0.0,0.0,0.0,0.0,8
8513.685,18185.67,-393.39,-7402.23,0.0,0.0,0.0,0.0,8
16077.69,9202.185,7027.245,-541.53,0.0,0.0,0.0,0.0,8
22372.47,1144.1699999999998,13233.51,5273.415,0.0,0.0,0.0,0.0,8
21294.405,436.86,12231.855,4392.675,0.0,0.0,0.0,0.0,8
15196.635,7013.835,6213.69,-1193.6699999999998,0.0,0.0,0.0,0.0,8
7865.865,15916.68,-962.865,-7805.655,0.0,0.0,0.0,0.0,8
1265.355,13983.21,-4212.2699999999995,-7905.78,0.0,0.0,0.0,0.0,8
1250.145,11913.93,-3527.64,-6327.855,0.0,0.0,0.0,0.0,8
6526.259999999999,19874.025,-2265.21,-8977.949999999999,0.0,0.0,0.0,0.0,8
13782.87,12157.02,4706.46,-2758.23,0.0,0.0,0.0,0.0,8
21236.355,3130.1099999999997,11933.1,4013.415,0.0,0.0,0.0,0.0,8
22708.485,-179.95499999999998,13234.545,5314.1849999999995,0.0,0.0,0.0,0.0,8
17359.47,4544.28,8316.72,785.52,0.0,0.0,0.0,0.0,8
10213.965,13443.975,1244.88,-5832.945,0.0,0.0,0.0,0.0,8
2874.375,17731.62,-4598.46,-9932.22,0.0,0.0,0.0,0.0,8
584.8199999999999,10393.875,-3504.825,-5643.719999999999,0.0,0.0,0.0,0.0,8
4754.25,19950.525,-3607.74,-9681.12,0.0,0.0,0.0,0.0,8
11872.215,15362.055,2615.85,-4926.105,0.0,0.0,0.0,0.0,8
19667.88,5913.99,10238.76,2200.275,0.0,0.0,0.0,0.0,8
23759.595,92.385,13990.545,5803.695,0.0,0.0,0.0,0.0,8
19874.295,2571.21,10510.11,2629.305,0.0,0.0,0.0,0.0,8
12767.175,10863.135,3642.3,-3753.99,0.0,0.0,0.0,0.0,8
5251.905,18609.345,-3384.9,-9848.43,0.0,0.0,0.0,0.0,8
445.545,11854.755,-4031.955,-6580.844999999999,0.0,0.0,0.0,0.0,8
2895.21,17541.225,-4257.135,-8981.64,0.0,0.0,0.0,0.0,8
9431.82,18398.52,250.56,-7105.32,0.0,0.0,0.0,0.0,8
17236.215,8989.199999999999,7935.12,47.475,0.0,0.0,0.0,0.0,8
21779.955,1096.515,14037.66,5345.1449999999995,0.0,0.0,0.0,0.0,8
20541.96,1080.135,12545.955,4026.96,0.0,0.0,0.0,0.0,8
15228.315,8271.855,6030.945,-1552.905,0.0,0.0,0.0,0.0,8
7582.77,17463.645,-1489.14,-8536.14,0.0,0.0,0.0,0.0,8
1006.065,15729.615,-4986.54,-8876.744999999999,0.0,0.0,0.0,0.0,8
1575.36,14428.305,-4159.665,-7528.139999999999,0.0,0.0,0.0,0.0,8
7301.16,20863.035,-1905.39,-9021.555,0.0,0.0,0.0,0.0,8
14997.285,12355.74,5602.32,-2204.505,0.0,0.0,0.0,0.0,8
18611.415,2849.805,11938.635,4499.505,0.0,0.0,0.0,0.0,8
14928.03,-566.01,11361.06,4987.3949999999995,0.0,0.0,0.0,0.0,8
16993.17,5322.554999999999,8321.67,464.58,0.0,0.0,0.0,0.0,8
10205.64,14797.845,955.935,-6443.82,0.0,0.0,0.0,0.0,8
2669.1749999999997,18471.105,-4888.08,-10243.215,0.0,0.0,0.0,0.0,8
725.7149999999999,11497.545,-3733.965,-6103.71,0.0,0.0,0.0,0.0,8
5283.8099999999995,21052.215,-3479.22,-9970.245,0.0,0.0,0.0,0.0,8
12916.53,15230.52,3357.855,-4422.6449999999995,0.0,0.0,0.0,0.0,8
16993.575,5335.335,9320.76,2328.93,0.0,0.0,0.0,0.0,8
6365.429999999999,-37.485,4514.8949999999995,2141.37,0.0,0.0,0.0,0.0,8
13871.16,2398.9049999999997,7552.349999999999,1440.0449999999998,0.0,0.0,0.0,0.0,8
12700.935,11421.72,3359.25,-4266.72,0.0,0.0,0.0,0.0,8
4542.3,18871.83,-4019.76,-10425.42,0.0,0.0,0.0,0.0,8
278.59499999999997,10490.58,-3735.135,-6009.885,0.0,0.0,0.0,0.0,8
3237.2999999999997,18051.03,-4199.67,-9307.125,0.0,0.0,0.0,0.0,8
10429.2,17758.035,943.38,-6717.42,0.0,0.0,0.0,0.0,8
16755.255,7815.645,8056.575,544.365,0.0,0.0,0.0,0.0,8
6916.59,770.31,4291.74,1714.59,0.0,0.0,0.0,0.0,8
8083.889999999999,555.885,4625.1449999999995,1061.685,0.0,0.0,0.0,0.0,8
14451.795,7455.96,5484.735,-2101.95,0.0,0.0,0.0,0.0,8
7000.695,17009.55,-2289.4649999999997,-9334.8,0.0,0.0,0.0,0.0,8
610.245,13005.765,-4578.795,-7908.795,0.0,0.0,0.0,0.0,8
1621.08,13421.7,-4032.765,-7357.094999999999,0.0,0.0,0.0,0.0,8
7980.705,19412.82,-1431.09,-8644.095,0.0,0.0,0.0,0.0,8
15493.185,10142.235,6275.925,-1441.8,0.0,0.0,0.0,0.0,8
10138.005,1771.335,5812.245,1881.36,0.0,0.0,0.0,0.0,8
3911.085,-358.965,2420.685,702.495,0.0,0.0,0.0,0.0,8
14373.855,3000.96,6682.005,-207.18,0.0,0.0,0.0,0.0,8
9888.615,12728.475,474.885,-6986.745,0.0,0.0,0.0,0.0,8
2036.745,13857.435,-4291.29,-8854.74,0.0,0.0,0.0,0.0,8
669.735,8403.795,-3024.765,-5037.66,0.0,0.0,0.0,0.0,8
5490.855,18471.51,-3262.995,-9704.7,0.0,0.0,0.0,0.0,8
13508.91,11459.88,4063.545,-3564.54,0.0,0.0,0.0,0.0,8
13725.99,2373.0299999999997,7433.46,1973.43,0.0,0.0,0.0,0.0,8
2763.72,-493.695,1775.5649999999998,694.53,0.0,0.0,0.0,0.0,8
11878.605,-794.88,6100.74,838.89,0.0,0.0,0.0,0.0,8
12411.585,7170.929999999999,3074.265,-4368.24,0.0,0.0,0.0,0.0,8
4185.54,13512.06,-3469.14,-9329.895,0.0,0.0,0.0,0.0,8
361.71,6238.62,-2474.91,-4158.54,0.0,0.0,0.0,0.0,8
3390.615,15380.685,-4061.295,-9175.905,0.0,0.0,0.0,0.0,8
11064.51,12390.39,1711.845,-5593.094999999999,0.0,0.0,0.0,0.0,8
15948.81,2788.1549999999997,7810.83,1279.215,0.0,0.0,0.0,0.0,8
4427.91,-519.03,2689.47,1113.075,0.0,0.0,0.0,0.0,8
8237.295,-2235.825,4658.985,1136.07,0.0,0.0,0.0,0.0,8
14040.945,2178.36,5176.17,-2041.65,0.0,0.0,0.0,0.0,8
6332.3099999999995,11321.01,-2378.9249999999997,-8860.455,0.0,0.0,0.0,0.0,8
565.8299999999999,7263.719999999999,-3142.26,-5527.53,0.0,0.0,0.0,0.0,8
2106.45,11337.93,-3640.365,-7135.92,0.0,0.0,0.0,0.0,8
8776.98,13558.5,-399.33,-7296.075,0.0,0.0,0.0,0.0,8
16050.285,3985.785,7137.585,-74.25,0.0,0.0,0.0,0.0,8
8701.65,-910.935,5175.8099999999995,2060.8199999999997,0.0,0.0,0.0,0.0,8
4612.5,-1840.095,2818.35,901.26,0.0,0.0,0.0,0.0,8
14401.08,-1193.895,6417.405,-177.39,0.0,0.0,0.0,0.0,8
8757.99,8189.099999999999,-347.265,-7089.795,0.0,0.0,0.0,0.0,8
1436.13,9396.72,-3992.04,-7702.785,0.0,0.0,0.0,0.0,8
914.355,7679.969999999999,-3069.18,-5192.82,0.0,0.0,0.0,0.0,8
6347.205,14370.615,-2427.345,-8669.699999999999,0.0,0.0,0.0,0.0,8
14488.29,6095.429999999999,5262.84,-1947.285,0.0,0.0,0.0,0.0,8
13158.81,-961.65,7440.48,2618.73,0.0,0.0,0.0,0.0,8
2923.56,-1229.58,1889.82,759.375,0.0,0.0,0.0,0.0,8
12696.705,-3103.38,6394.41,882.18,0.0,0.0,0.0,0.0,8
11424.42,4488.165,2226.42,-4735.98,0.0,0.0,0.0,0.0,8
3124.89,9038.565,-3336.435,-7954.38,0.0,0.0,0.0,0.0,8
-52.425,3286.395,-1604.655,-2521.98,0.0,0.0,0.0,0.0,8
2121.075,11326.05,-3657.87,-7350.795,0.0,0.0,0.0,0.0,8
9766.035,7398.045,1863.855,-3817.35,0.0,0.0,0.0,0.0,8
12672.18,-760.3199999999999,6654.735,1986.93,0.0,0.0,0.0,0.0,8
2316.735,-864.405,1469.97,678.51,0.0,0.0,0.0,0.0,8
8923.545,-6198.48,5609.835,840.15,0.0,0.0,0.0,0.0,8
15280.65,-6745.365,7230.509999999999,-2549.88,0.0,0.0,0.0,0.0,8
7463.295,2591.775,-538.29,-9279.315,0.0,0.0,0.0,0.0,8
1169.415,4787.099999999999,-2912.895,-6347.205,0.0,0.0,0.0,0.0,8
3449.9249999999997,9160.56,-2818.395,-8181.045,0.0,0.0,0.0,0.0,8
10722.51,6543.719999999999,2190.87,-6883.38,0.0,0.0,0.0,0.0,8
17168.489999999998,-2565.765,9111.06,189.675,0.0,0.0,0.0,0.0,8
7366.41,-2860.1549999999997,4717.485,1588.86,0.0,0.0,0.0,0.0,8
5484.285,-3900.105,3607.335,1139.985,0.0,0.0,0.0,0.0,8
15972.615,-7519.77,8352.63,140.94,0.0,0.0,0.0,0.0,8
9946.755,1296.36,1501.965,-6867.99,0.0,0.0,0.0,0.0,8
2179.035,4493.745,-2409.8399999999997,-6569.19,0.0,0.0,0.0,0.0,8
1755.495,6181.0199999999995,-2322.315,-5297.355,0.0,0.0,0.0,0.0,8
8162.639999999999,9062.055,-145.845,-7929.63,0.0,0.0,0.0,0.0,8
16046.64,-2.205,7501.724999999999,-1086.165,0.0,0.0,0.0,0.0,8
11594.88,-3781.98,7150.679999999999,2393.415,0.0,0.0,0.0,0.0,8
3062.745,-2163.69,2093.4449999999997,795.87,0.0,0.0,0.0,0.0,8
14379.075,-7388.054999999999,8046.945,1248.75,0.0,0.0,0.0,0.0,8
11814.885,-253.935,3249.9,-4940.46,0.0,0.0,0.0,0.0,8
3351.105,5156.82,-2363.355,-7517.52,0.0,0.0,0.0,0.0,8
783.99,3827.34,-1815.57,-3522.7349999999997,0.0,0.0,0.0,0.0,8
5548.59,8810.414999999999,-1700.1899999999998,-7576.2,0.0,0.0,0.0,0.0,8
13717.71,1082.745,5486.8949999999995,-1867.905,0.0,0.0,0.0,0.0,8
14523.975,-5082.165,8688.06,3140.865,0.0,0.0,0.0,0.0,8
2586.06,-1649.61,1781.46,882.7199999999999,0.0,0.0,0.0,0.0,8
11174.535,-7951.32,6926.445,2484.45,0.0,0.0,0.0,0.0,8
14423.355,-5953.005,6134.849999999999,-1392.165,0.0,0.0,0.0,0.0,8
5782.1849999999995,2715.5699999999997,-1214.46,-7170.48,0.0,0.0,0.0,0.0,8
588.9599999999999,2542.005,-1535.94,-3007.5299999999997,0.0,0.0,0.0,0.0,8
3142.08,9021.825,-2557.89,-6643.53,0.0,0.0,0.0,0.0,8
10928.295,5731.74,2977.38,-3743.91,0.0,0.0,0.0,0.0,8
16276.455,-3123.0899999999997,9282.195,2971.2149999999997,0.0,0.0,0.0,0.0,8
4808.429999999999,-1982.97,3182.355,1609.335,0.0,0.0,0.0,0.0,8
6986.429999999999,-5027.67,4671.72,2175.66,0.0,0.0,0.0,0.0,8
15869.52,-7457.174999999999,8343.945,1511.505,0.0,0.0,0.0,0.0,8
8383.455,1769.22,777.105,-5618.205,0.0,0.0,0.0,0.0,8
1273.095,3089.97,-1725.66,-4048.74,0.0,0.0,0.0,0.0,8
1828.485,6988.545,-2110.23,-4704.57,0.0,0.0,0.0,0.0,8
8517.555,9184.23,1042.515,-5043.78,0.0,0.0,0.0,0.0,8
16032.6,-233.145,8473.635,1883.88,0.0,0.0,0.0,0.0,8
9059.355,-2811.4649999999997,5839.469999999999,2871.495,0.0,0.0,0.0,0.0,8
3390.435,-2532.06,2390.13,1244.565,0.0,0.0,0.0,0.0,8
15167.07,-8023.545,8951.31,3071.52,0.0,0.0,0.0,0.0,8
11276.685,-232.11,3463.56,-3211.4249999999997,0.0,0.0,0.0,0.0,8
2921.49,4291.5599999999995,-1668.645,-5367.51,0.0,0.0,0.0,0.0,8
799.02,4467.69,-1663.425,-3148.02,0.0,0.0,0.0,0.0,8
5960.969999999999,11075.985,-844.245,-6094.755,0.0,0.0,0.0,0.0,8
14384.475,3298.23,6747.48,276.435,0.0,0.0,0.0,0.0,8
13518.18,-2916.0899999999997,8532.855,4025.43,0.0,0.0,0.0,0.0,8
2366.595,-1372.365,1704.06,990.045,0.0,0.0,0.0,0.0,8
12304.26,-6957.585,7971.03,3758.085,0.0,0.0,0.0,0.0,8
14007.285,-2695.0499999999997,6332.804999999999,-107.955,0.0,0.0,0.0,0.0,8
5313.6449999999995,5021.235,-944.415,-5777.01,0.0,0.0,0.0,0.0,8
665.55,3292.515,-1468.665,-2771.19,0.0,0.0,0.0,0.0,8
3946.41,10188.315,-2016.495,-6168.014999999999,0.0,0.0,0.0,0.0,8
11771.37,5923.304999999999,4245.165,-1846.62,0.0,0.0,0.0,0.0,8
16325.55,-2556.0,9802.98,4199.58,0.0,0.0,0.0,0.0,8
4377.285,-1692.945,2996.775,1712.52,0.0,0.0,0.0,0.0,8
8006.085,-5113.304999999999,5398.0199999999995,2786.625,0.0,0.0,0.0,0.0,8
15559.38,-5481.224999999999,8184.87,1952.055,0.0,0.0,0.0,0.0,8
7987.545,3614.445,686.295,-4977.99,0.0,0.0,0.0,0.0,8
1185.165,3815.82,-1755.855,-3807.9,0.0,0.0,0.0,0.0,8
2196.765,8080.424999999999,-2218.23,-5059.3949999999995,0.0,0.0,0.0,0.0,8
9266.355,9152.46,1747.1699999999998,-4142.205,0.0,0.0,0.0,0.0,8
16479.899999999998,-133.42499999999998,9087.75,2839.8599999999997,0.0,0.0,0.0,0.0,8
8592.074999999999,-2513.16,5683.139999999999,3054.69,0.0,0.0,0.0,0.0,8
3987.72,-2757.51,2831.58,1580.6699999999998,0.0,0.0,0.0,0.0,8
15299.955,-6715.98,8971.785,3357.045,0.0,0.0,0.0,0.0,8
10548.585,1460.2949999999998,3067.74,-2887.83,0.0,0.0,0.0,0.0,8
2070.585,3479.04,-1198.53,-3679.965,0.0,0.0,0.0,0.0,8
113.535,4050.585,-1357.74,-2248.785,0.0,0.0,0.0,0.0,8
4076.37,11955.87,-1029.555,-4687.38,0.0,0.0,0.0,0.0,8
11993.085,4749.075,6093.45,1419.9299999999998,0.0,0.0,0.0,0.0,8
8940.96,-1079.055,5948.01,3410.955,0.0,0.0,0.0,0.0,8
1792.08,-1464.705,1409.85,1008.495,0.0,0.0,0.0,0.0,8
15071.94,-10883.655,10951.47,7183.755,0.0,0.0,0.0,0.0,8
17208.315,-8382.33,10358.685,4743.8099999999995,0.0,0.0,0.0,0.0,8
6944.58,-351.135,2229.12,-1382.085,0.0,0.0,0.0,0.0,8
731.385,2150.1,-458.865,-1271.205,0.0,0.0,0.0,0.0,8
4580.82,11667.06,306.405,-2818.395,0.0,0.0,0.0,0.0,8
12328.335,8238.105,6666.389999999999,2174.85,0.0,0.0,0.0,0.0,8
14876.55,247.77,10266.615,6302.745,0.0,0.0,0.0,0.0,8
3149.91,-848.3399999999999,2387.295,1673.595,0.0,0.0,0.0,0.0,8
9752.085,-6073.875,7388.955,5105.5199999999995,0.0,0.0,0.0,0.0,8
18211.77,-6940.3949999999995,12066.255,6809.264999999999,0.0,0.0,0.0,0.0,8
10045.35,1334.16,4465.08,46.754999999999995,0.0,0.0,0.0,0.0,8
1413.675,2007.585,-124.74,-1268.1,0.0,0.0,0.0,0.0,8
2685.375,9671.22,-341.865,-2607.39,0.0,0.0,0.0,0.0,8
10008.045,11819.565,4784.49,655.155,0.0,0.0,0.0,0.0,8
15357.78,3065.67,10433.295,6224.13,0.0,0.0,0.0,0.0,8
5261.76,-554.535,3946.455,2758.995,0.0,0.0,0.0,0.0,8
5521.05,-3967.245,4449.96,3330.6749999999997,0.0,0.0,0.0,0.0,8
20060.64,-10376.91,14805.36,9964.17,0.0,0.0,0.0,0.0,8
14853.87,-2629.17,8979.345,4013.1,0.0,0.0,0.0,0.0,8
3618.72,1462.41,1251.765,-653.22,0.0,0.0,0.0,0.0,8
1558.1699999999998,6075.9,-167.04,-1569.87,0.0,0.0,0.0,0.0,8
8135.91,14167.89,3775.23,163.71,0.0,0.0,0.0,0.0,8
15539.985,6693.3,10806.21,6571.304999999999,0.0,0.0,0.0,0.0,8
10201.41,144.585,7854.75,5634.585,0.0,0.0,0.0,0.0,8
2539.575,-1674.495,2117.0699999999997,1646.73,0.0,0.0,0.0,0.0,8
17194.545,-8819.775,13338.045,9666.945,0.0,0.0,0.0,0.0,8
18019.98,-3648.06,12229.29,7308.36,0.0,0.0,0.0,0.0,8
7052.3099999999995,2345.7149999999997,3422.835,548.505,0.0,0.0,0.0,0.0,8
1123.875,3545.055,-61.515,-1011.06,0.0,0.0,0.0,0.0,8
6389.01,14371.695,2443.545,-731.745,0.0,0.0,0.0,0.0,8
14261.175,9884.205,9446.76,5387.175,0.0,0.0,0.0,0.0,8
14054.13,1728.855,10646.055,7576.83,0.0,0.0,0.0,0.0,8
2347.515,-679.4549999999999,1921.14,1416.375,0.0,0.0,0.0,0.0,8
12562.38,-6011.775,9979.155,5612.985,0.0,0.0,0.0,0.0,8
18900.81,-3577.815,13425.435,5337.36,0.0,0.0,0.0,0.0,8
9934.02,3912.48,5331.465,-963.945,0.0,0.0,0.0,0.0,8
1378.125,2899.935,107.685,-1531.3049999999998,0.0,0.0,0.0,0.0,8
4419.45,12302.19,1133.37,-3104.73,0.0,0.0,0.0,0.0,8
12212.01,11872.215,7465.365,1260.135,0.0,0.0,0.0,0.0,8
16405.29,3510.27,12059.1,6263.82,0.0,0.0,0.0,0.0,8
4994.46,-421.02,3952.98,2526.075,0.0,0.0,0.0,0.0,8
7861.545,-4581.764999999999,6434.46,4384.349999999999,0.0,0.0,0.0,0.0,8
19854.495,-6840.0,14813.685,8567.82,0.0,0.0,0.0,0.0,8
13780.08,1363.005,8454.824999999999,2379.51,0.0,0.0,0.0,0.0,8
3361.23,3241.26,1107.135,-1346.94,0.0,0.0,0.0,0.0,8
2962.62,8552.295,442.98,-2392.245,0.0,0.0,0.0,0.0,8
10426.815,13318.38,5532.344999999999,4.725,0.0,0.0,0.0,0.0,8
16832.07,5611.41,11767.275,5851.125,0.0,0.0,0.0,0.0,8
10626.48,-206.325,8172.27,5239.17,0.0,0.0,0.0,0.0,8
3923.46,-2232.9449999999997,3253.545,2308.455,0.0,0.0,0.0,0.0,8
18093.6,-6733.844999999999,13820.085,8674.11,0.0,0.0,0.0,0.0,8
16370.595,175.095,10700.1,4563.8099999999995,0.0,0.0,0.0,0.0,8
7281.36,5527.844999999999,3046.635,-1221.345,0.0,0.0,0.0,0.0,8
2103.93,5487.48,-41.715,-2147.355,0.0,0.0,0.0,0.0,8
8649.63,13217.175,3577.365,-1714.455,0.0,0.0,0.0,0.0,8
15600.96,7426.53,9936.18,3782.88,0.0,0.0,0.0,0.0,8
21543.705,51.84,15651.405,8967.734999999999,0.0,0.0,0.0,0.0,8
24738.03,-5010.389999999999,18751.635,11847.6,0.0,0.0,0.0,0.0,8
20477.7,-1565.55,14622.255,8080.785,0.0,0.0,0.0,0.0,8
14607.135,6037.5599999999995,8764.695,2725.1099999999997,0.0,0.0,0.0,0.0,8
10118.295,12372.255,4209.974999999999,-1555.515,0.0,0.0,0.0,0.0,8
6179.535,18120.195,240.525,-5449.455,0.0,0.0,0.0,0.0,8
9289.845,16190.1,3134.16,-2924.415,0.0,0.0,0.0,0.0,8
15230.925,8929.484999999999,8859.96,2333.295,0.0,0.0,0.0,0.0,8
19796.535,2709.045,13387.545,6536.969999999999,0.0,0.0,0.0,0.0,8
24321.555,-3448.98,17843.985,10686.645,0.0,0.0,0.0,0.0,8
22078.35,-2411.325,15689.925,8721.135,0.0,0.0,0.0,0.0,8
15923.88,4836.014999999999,9633.555,3105.3599999999997,0.0,0.0,0.0,0.0,8
11689.92,11007.36,5308.425,-973.53,0.0,0.0,0.0,0.0,8
7324.74,17013.105,887.355,-5220.764999999999,0.0,0.0,0.0,0.0,8
8507.654999999999,17337.735,1925.55,-4386.6449999999995,0.0,0.0,0.0,0.0,8
13898.205,11235.735,7170.21,472.275,0.0,0.0,0.0,0.0,8
17606.43,5860.53,10846.62,3896.82,0.0,0.0,0.0,0.0,8
22244.445,-183.645,15398.235,8113.815,0.0,0.0,0.0,0.0,8
21737.025,-1159.65,14952.24,7734.195,0.0,0.0,0.0,0.0,8
16421.355,4689.675,9740.52,2915.2799999999997,0.0,0.0,0.0,0.0,8
12723.255,10290.195,5923.485,-660.6,0.0,0.0,0.0,0.0,8
9122.13,15388.065,2291.895,-4083.93,0.0,0.0,0.0,0.0,8
8374.86,17775.675,1474.245,-4942.53,0.0,0.0,0.0,0.0,8
12911.58,13277.025,5821.065,-989.775,0.0,0.0,0.0,0.0,8
16192.845,8421.48,9146.025,2058.12,0.0,0.0,0.0,0.0,8
20045.52,3173.535,12940.875,5553.63,0.0,0.0,0.0,0.0,8
21574.44,69.12,14474.385,7018.5599999999995,0.0,0.0,0.0,0.0,8
17357.085,4167.495,10380.96,3248.955,0.0,0.0,0.0,0.0,8
13253.31,10023.03,6223.545,-646.38,0.0,0.0,0.0,0.0,8
10670.58,14068.035,3514.095,-3185.055,0.0,0.0,0.0,0.0,8
8456.13,17918.325,1275.885,-5333.715,0.0,0.0,0.0,0.0,8
11754.27,15194.835,4391.639999999999,-2522.565,0.0,0.0,0.0,0.0,8
15260.085,10405.53,7897.5,670.905,0.0,0.0,0.0,0.0,8
18097.29,6343.335,10800.135,3340.62,0.0,0.0,0.0,0.0,8
21023.82,1756.1699999999998,13687.65,6037.0199999999995,0.0,0.0,0.0,0.0,8
18194.58,3762.72,10836.27,3407.805,0.0,0.0,0.0,0.0,8
13701.06,9665.775,6270.12,-824.985,0.0,0.0,0.0,0.0,8
11676.645,13223.16,4180.7699999999995,-2765.88,0.0,0.0,0.0,0.0,8
8915.85,17590.184999999998,1402.65,-5387.3099999999995,0.0,0.0,0.0,0.0,8
10640.565,16925.895,3013.1099999999997,-3956.715,0.0,0.0,0.0,0.0,8
14449.365,12220.155,6754.545,-538.965,0.0,0.0,0.0,0.0,8
16520.445,8849.475,8916.164999999999,1424.385,0.0,0.0,0.0,0.0,8
20177.955,3725.505,12499.38,4741.875,0.0,0.0,0.0,0.0,8
19145.25,3579.21,11554.56,3915.81,0.0,0.0,0.0,0.0,8
14600.295,9021.645,6994.755,-322.56,0.0,0.0,0.0,0.0,8
12326.67,12985.47,4650.12,-2483.5499999999997,0.0,0.0,0.0,0.0,8
9767.475,17017.649999999998,2034.72,-4931.19,0.0,0.0,0.0,0.0,8
9640.62,18394.29,1859.625,-5161.7699999999995,0.0,0.0,0.0,0.0,8
13461.75,14261.67,5537.969999999999,-1826.955,0.0,0.0,0.0,0.0,8
15551.01,10878.21,7694.46,137.7,0.0,0.0,0.0,0.0,8
18916.92,6058.8,11021.895,3180.06,0.0,0.0,0.0,0.0,8
19775.385,3662.325,11916.675,4046.49,0.0,0.0,0.0,0.0,8
15704.595,7928.415,7940.88,404.685,0.0,0.0,0.0,0.0,8
12518.595,12853.575,4640.67,-2663.2799999999997,0.0,0.0,0.0,0.0,8
10394.415,16274.97,2404.7999999999997,-4753.71,0.0,0.0,0.0,0.0,8
8965.305,19333.62,949.32,-6151.365,0.0,0.0,0.0,0.0,8
12243.375,16372.845,4116.6449999999995,-3253.455,0.0,0.0,0.0,0.0,8
14841.72,12537.945,6759.179999999999,-846.18,0.0,0.0,0.0,0.0,8
17484.704999999998,8698.275,9413.325,1579.59,0.0,0.0,0.0,0.0,8
19894.275,4632.84,11802.195,3831.21,0.0,0.0,0.0,0.0,8
16973.73,7098.66,8938.574999999999,1206.135,0.0,0.0,0.0,0.0,8
13054.77,12561.57,5028.615,-2400.345,0.0,0.0,0.0,0.0,8
11440.26,15555.96,3290.22,-4025.43,0.0,0.0,0.0,0.0,8
8981.01,19354.545,778.095,-6403.59,0.0,0.0,0.0,0.0,8
11005.515,18181.845,2716.38,-4672.755,0.0,0.0,0.0,0.0,8
14340.735,14106.375,6009.57,-1655.865,0.0,0.0,0.0,0.0,8
16231.365,11162.61,7996.5,144.945,0.0,0.0,0.0,0.0,8
19225.935,6361.11,10961.01,2869.83,0.0,0.0,0.0,0.0,8
17851.274999999998,6741.134999999999,9663.48,1703.385,0.0,0.0,0.0,0.0,8
13683.87,12007.845,5510.474999999999,-2143.485,0.0,0.0,0.0,0.0,8
11920.86,15252.165,3573.315,-3935.07,0.0,0.0,0.0,0.0,8
9653.085,18811.755,1263.105,-6075.54,0.0,0.0,0.0,0.0,8
10169.28,19505.295,1703.385,-5742.99,0.0,0.0,0.0,0.0,8
13467.69,15672.015,4940.505,-2823.2999999999997,0.0,0.0,0.0,0.0,8
15050.16,12987.495,6643.98,-1262.43,0.0,0.0,0.0,0.0,8
18294.795,8504.775,9866.745,1764.63,0.0,0.0,0.0,0.0,8
18640.17,6781.724999999999,10246.995,2156.49,0.0,0.0,0.0,0.0,8
14719.455,11087.73,6382.844999999999,-1432.125,0.0,0.0,0.0,0.0,8
12302.865,15132.33,3837.42,-3787.74,0.0,0.0,0.0,0.0,8
10590.12,18039.645,1997.325,-5499.224999999999,0.0,0.0,0.0,0.0,8
9621.81,20284.605,979.2,-6491.25,0.0,0.0,0.0,0.0,8
12656.88,17298.315,3951.135,-3794.535,0.0,0.0,0.0,0.0,8
14462.28,14408.46,5879.07,-2055.1949999999997,0.0,0.0,0.0,0.0,8
16882.559999999998,10904.58,8335.35,190.71,0.0,0.0,0.0,0.0,8
18708.3,7605.179999999999,10165.86,1900.575,0.0,0.0,0.0,0.0,8
15556.95,10459.98,7087.23,-924.435,0.0,0.0,0.0,0.0,8
12466.8,15002.82,3834.27,-3956.895,0.0,0.0,0.0,0.0,8
11350.305,17347.095,2564.145,-5115.69,0.0,0.0,0.0,0.0,8
9634.14,20330.73,876.285,-6692.58,0.0,0.0,0.0,0.0,8
11814.75,18684.0,2957.085,-4850.054999999999,0.0,0.0,0.0,0.0,8
14024.97,15580.26,5186.385,-2844.45,0.0,0.0,0.0,0.0,8
15591.24,13103.1,6854.535,-1290.69,0.0,0.0,0.0,0.0,8
18335.745,8910.63,9609.885,1291.23,0.0,0.0,0.0,0.0,8
16601.085,9889.065,7937.46,-234.045,0.0,0.0,0.0,0.0,8
13001.22,14558.31,4318.875,-3572.19,0.0,0.0,0.0,0.0,8
11908.71,16936.47,3045.105,-4761.54,0.0,0.0,0.0,0.0,8
10063.17,19851.885,1139.22,-6538.365,0.0,0.0,0.0,0.0,8
10982.205,19785.96,1991.52,-5799.105,0.0,0.0,0.0,0.0,8
13528.26,16663.005,4539.0599999999995,-3474.765,0.0,0.0,0.0,0.0,8
14658.21,14708.16,5817.105,-2329.9649999999997,0.0,0.0,0.0,0.0,8
17587.62,10691.595,8731.485,340.335,0.0,0.0,0.0,0.0,8
17325.585,9759.645,8497.71,149.355,0.0,0.0,0.0,0.0,8
13744.98,13881.195,4917.87,-3143.475,0.0,0.0,0.0,0.0,8
12084.93,16820.73,3121.1549999999997,-4805.19,0.0,0.0,0.0,0.0,8
10764.27,19170.0,1706.58,-6113.745,0.0,0.0,0.0,0.0,8
10581.075,20446.92,1461.4199999999998,-6381.2699999999995,0.0,0.0,0.0,0.0,8
13003.38,17774.01,3859.2,-4193.955,0.0,0.0,0.0,0.0,8
14037.705,15857.235,5028.48,-3151.2149999999997,0.0,0.0,0.0,0.0,8
16350.705,12692.61,7366.455,-1013.715,0.0,0.0,0.0,0.0,8
17639.145,10094.085,8652.195,187.515,0.0,0.0,0.0,0.0,8
14696.91,13105.26,5725.26,-2511.0,0.0,0.0,0.0,0.0,8
12355.92,16779.465,3295.935,-4763.5199999999995,0.0,0.0,0.0,0.0,8
11420.055,18656.28,2205.72,-5755.139999999999,0.0,0.0,0.0,0.0,8
10427.985,20812.32,1202.94,-6679.17,0.0,0.0,0.0,0.0,8
12327.255,18989.055,3083.9849999999997,-4963.995,0.0,0.0,0.0,0.0,8
13639.725,16779.78,4486.23,-3718.665,0.0,0.0,0.0,0.0,8
15192.9,14553.45,6064.0199999999995,-2306.565,0.0,0.0,0.0,0.0,8
17613.675,10893.06,8456.85,-101.655,0.0,0.0,0.0,0.0,8
15677.01,12295.395,6622.92,-1761.12,0.0,0.0,0.0,0.0,8
12657.42,16446.375,3590.145,-4528.44,0.0,0.0,0.0,0.0,8
11930.4,18347.625,2627.37,-5424.795,0.0,0.0,0.0,0.0,8
10537.83,20679.615,1169.46,-6791.94,0.0,0.0,0.0,0.0,8
11676.33,20079.675,2262.015,-5810.58,0.0,0.0,0.0,0.0,8
13473.135,17635.005,4116.285,-4128.974999999999,0.0,0.0,0.0,0.0,8
14389.74,16003.08,5123.16,-3264.66,0.0,0.0,0.0,0.0,8
17055.0,12193.695,7789.905,-862.1999999999999,0.0,0.0,0.0,0.0,8
16532.28,11752.74,7333.56,-1286.505,0.0,0.0,0.0,0.0,8
13267.305,15757.47,4033.125,-4291.83,0.0,0.0,0.0,0.0,8
12036.195,18223.38,2630.7,-5489.37,0.0,0.0,0.0,0.0,8
10837.26,20295.54,1376.0549999999998,-6606.45,0.0,0.0,0.0,0.0,8
11004.165,20963.52,1471.86,-6585.974999999999,0.0,0.0,0.0,0.0,8
13088.61,18579.78,3594.51,-4661.1449999999995,0.0,0.0,0.0,0.0,8
13947.93,17100.765,4563.36,-3819.78,0.0,0.0,0.0,0.0,8
16257.555,13909.05,6894.179999999999,-1695.465,0.0,0.0,0.0,0.0,8
17044.785,11752.605,7726.634999999999,-908.19,0.0,0.0,0.0,0.0,8
13980.825,14952.42,4730.804999999999,-3654.315,0.0,0.0,0.0,0.0,8
12149.955,18234.045,2748.51,-5473.844999999999,0.0,0.0,0.0,0.0,8
11379.51,19940.31,1812.06,-6330.24,0.0,0.0,0.0,0.0,8
10702.17,21524.085,1072.8,-7056.2699999999995,0.0,0.0,0.0,0.0,8
12543.885,19692.405,2855.385,-5437.665,0.0,0.0,0.0,0.0,8
13641.075,18004.41,4161.24,-4239.315,0.0,0.0,0.0,0.0,8
15310.17,15724.71,5910.03,-2667.24,0.0,0.0,0.0,0.0,8
17256.42,12358.08,7835.49,-890.3249999999999,0.0,0.0,0.0,0.0,8
14980.185,14145.21,5600.429999999999,-2946.015,0.0,0.0,0.0,0.0,8
12318.12,18054.72,2847.1949999999997,-5483.474999999999,0.0,0.0,0.0,0.0,8
11702.52,19719.54,2037.195,-6227.054999999999,0.0,0.0,0.0,0.0,8
10648.575,21695.355,940.005,-7252.425,0.0,0.0,0.0,0.0,8
11949.795,20785.095,2205.45,-6099.75,0.0,0.0,0.0,0.0,8
13374.495,18798.84,3712.545,-4710.15,0.0,0.0,0.0,0.0,8
14316.885,17249.309999999998,4768.514999999999,-3769.47,0.0,0.0,0.0,0.0,8
16785.765,13594.23,7243.02,-1513.035,0.0,0.0,0.0,0.0,8
15820.335,13706.415,6348.285,-2309.94,0.0,0.0,0.0,0.0,8
12819.96,17625.87,3326.265,-5079.825,0.0,0.0,0.0,0.0,8
12044.61,19691.955,2325.6,-5991.705,0.0,0.0,0.0,0.0,8
11019.42,21479.535,1152.495,-7096.724999999999,0.0,0.0,0.0,0.0,8
11531.52,21570.12,1626.48,-6686.19,0.0,0.0,0.0,0.0,8
13138.2,19570.185,3350.835,-5117.985,0.0,0.0,0.0,0.0,8
13734.18,18365.4,4131.2699999999995,-4434.075,0.0,0.0,0.0,0.0,8
15948.405,15240.96,6364.9349999999995,-2393.01,0.0,0.0,0.0,0.0,8
16468.38,13661.1,6940.259999999999,-1836.0,0.0,0.0,0.0,0.0,8
13546.71,16941.375,4012.245,-4539.825,0.0,0.0,0.0,0.0,8
12050.28,19633.32,2294.37,-6113.655,0.0,0.0,0.0,0.0,8
11395.26,21121.965,1422.72,-6896.205,0.0,0.0,0.0,0.0,8
11129.85,22121.73,1160.1,-7158.105,0.0,0.0,0.0,0.0,8
12674.52,20366.46,2761.1549999999997,-5701.365,0.0,0.0,0.0,0.0,8
13379.31,19113.93,3589.245,-4980.735,0.0,0.0,0.0,0.0,8
14990.49,16887.96,5260.005,-3484.08,0.0,0.0,0.0,0.0,8
16582.815,14089.68,6880.679999999999,-1969.02,0.0,0.0,0.0,0.0,8
14287.635,16274.205,4639.635,-4009.455,0.0,0.0,0.0,0.0,8
12231.27,19510.56,2460.7799999999997,-6000.4349999999995,0.0,0.0,0.0,0.0,8
11759.805,20845.17,1800.405,-6592.5,0.0,0.0,0.0,0.0,8
11156.85,22222.53,1131.57,-7219.08,0.0,0.0,0.0,0.0,8
12573.495,21115.62,2519.19,-5968.9349999999995,0.0,0.0,0.0,0.0,8
13362.435,19751.265,3447.72,-5157.72,0.0,0.0,0.0,0.0,8
14021.505,18331.785,4253.22,-4465.44,0.0,0.0,0.0,0.0,8
16246.575,15105.78,6470.55,-2440.26,0.0,0.0,0.0,0.0,8
15053.76,15725.43,5301.135,-3484.2149999999997,0.0,0.0,0.0,0.0,8
12518.73,19209.915,2695.3199999999997,-5863.275,0.0,0.0,0.0,0.0,8
12039.705,20798.19,2033.73,-6462.2699999999995,0.0,0.0,0.0,0.0,8
11205.045,22273.02,1070.37,-7353.134999999999,0.0,0.0,0.0,0.0,8
11866.5,21956.22,1721.115,-6777.0,0.0,0.0,0.0,0.0,8
13011.03,20400.84,2966.895,-5669.1449999999995,0.0,0.0,0.0,0.0,8
13528.8,19380.78,3636.72,-5089.275,0.0,0.0,0.0,0.0,8
15694.155,16428.825,5824.844999999999,-3075.39,0.0,0.0,0.0,0.0,8
15761.97,15376.32,5924.61,-2957.49,0.0,0.0,0.0,0.0,8
13087.035,18585.585,3227.355,-5438.565,0.0,0.0,0.0,0.0,8
12065.58,20739.06,2031.885,-6499.575,0.0,0.0,0.0,0.0,8
11420.28,22110.03,1258.335,-7178.804999999999,0.0,0.0,0.0,0.0,8
11420.685,22687.155,1234.485,-7231.139999999999,0.0,0.0,0.0,0.0,8
12868.47,21082.635,2666.97,-5968.3949999999995,0.0,0.0,0.0,0.0,8
13419.27,20043.72,3400.1099999999997,-5328.36,0.0,0.0,0.0,0.0,8
15019.56,17805.96,5083.92,-3794.31,0.0,0.0,0.0,0.0,8
16357.68,15388.605,6412.815,-2555.1,0.0,0.0,0.0,0.0,8
13836.42,17730.809999999998,3943.665,-4832.19,0.0,0.0,0.0,0.0,8
12084.525,20569.77,2100.375,-6530.3099999999995,0.0,0.0,0.0,0.0,8
11652.12,21857.76,1486.89,-7064.099999999999,0.0,0.0,0.0,0.0,8
11114.235,23127.705,833.805,-7672.815,0.0,0.0,0.0,0.0,8
12394.035,21865.32,2101.5,-6519.87,0.0,0.0,0.0,0.0,8
13193.505,20584.17,3013.875,-5740.38,0.0,0.0,0.0,0.0,8
14174.55,19100.385,4105.8,-4783.7699999999995,0.0,0.0,0.0,0.0,8
16200.585,15961.005,6177.285,-2859.885,0.0,0.0,0.0,0.0,8
14737.68,16939.98,4770.045,-4107.6449999999995,0.0,0.0,0.0,0.0,8
12389.985,20260.845,2332.845,-6345.54,0.0,0.0,0.0,0.0,8
11897.235,21667.185,1650.5549999999998,-6945.3,0.0,0.0,0.0,0.0,8
11066.895,23214.06,737.91,-7773.165,0.0,0.0,0.0,0.0,8
11923.245,22711.32,1554.885,-7061.849999999999,0.0,0.0,0.0,0.0,8
12995.1,21133.35,2722.41,-6009.389999999999,0.0,0.0,0.0,0.0,8
13541.715,20057.715,3396.6,-5431.815,0.0,0.0,0.0,0.0,8
15724.845,17045.235,5621.13,-3398.4,0.0,0.0,0.0,0.0,8
15536.655,16413.12,5487.795,-3499.515,0.0,0.0,0.0,0.0,8
12918.915,19676.43,2831.31,-5936.67,0.0,0.0,0.0,0.0,8
12046.545,21596.49,1776.06,-6890.04,0.0,0.0,0.0,0.0,8
11258.415,23069.07,880.92,-7701.165,0.0,0.0,0.0,0.0,8
11398.275,23496.57,987.93,-7625.969999999999,0.0,0.0,0.0,0.0,8
12797.64,21809.97,2415.06,-6346.3949999999995,0.0,0.0,0.0,0.0,8
13304.25,20792.835,3074.4449999999997,-5773.41,0.0,0.0,0.0,0.0,8
15004.35,18465.345,4843.889999999999,-4162.95,0.0,0.0,0.0,0.0,8
16070.76,16383.105,5925.51,-3158.595,0.0,0.0,0.0,0.0,8
13651.875,18963.495,3531.42,-5348.115,0.0,0.0,0.0,0.0,8
12075.345,21552.48,1786.005,-6928.514999999999,0.0,0.0,0.0,0.0,8
11508.075,22865.58,1074.6,-7559.955,0.0,0.0,0.0,0.0,8
11124.63,24058.935,627.255,-7999.514999999999,0.0,0.0,0.0,0.0,8
12453.255,22636.62,1980.405,-6762.96,0.0,0.0,0.0,0.0,8
13090.23,21381.66,2771.73,-6070.365,0.0,0.0,0.0,0.0,8
14151.015,19800.945,3922.515,-5049.2699999999995,0.0,0.0,0.0,0.0,8
16031.835,16912.89,5823.719999999999,-3290.355,0.0,0.0,0.0,0.0,8
14376.87,18262.08,4201.5599999999995,-4761.72,0.0,0.0,0.0,0.0,8
12282.795,21364.605,2000.745,-6781.545,0.0,0.0,0.0,0.0,8
11840.94,22674.87,1378.26,-7334.37,0.0,0.0,0.0,0.0,8
10973.565,24248.835,438.66,-8205.255,0.0,0.0,0.0,0.0,8
11951.91,23523.93,1343.2949999999998,-7405.2,0.0,0.0,0.0,0.0,8
13008.87,21960.0,2518.605,-6349.32,0.0,0.0,0.0,0.0,8
13555.665,20859.3,3260.8799999999997,-5685.57,0.0,0.0,0.0,0.0,8
15650.37,17900.415,5388.929999999999,-3743.595,0.0,0.0,0.0,0.0,8
15087.645,17691.255,4867.2,-4199.085,0.0,0.0,0.0,0.0,8
12645.81,20893.725,2376.45,-6473.969999999999,0.0,0.0,0.0,0.0,8
11992.095,22544.91,1520.775,-7245.045,0.0,0.0,0.0,0.0,8
11245.185,24066.495,657.9449999999999,-8029.53,0.0,0.0,0.0,0.0,8
11534.535,24287.445,881.9549999999999,-7861.094999999999,0.0,0.0,0.0,0.0,8
12758.535,22551.21,2141.1,-6723.315,0.0,0.0,0.0,0.0,8
13257.405,21563.055,2839.77,-6104.295,0.0,0.0,0.0,0.0,8
15006.735,19181.925,4688.37,-4423.68,0.0,0.0,0.0,0.0,8
15636.735,17531.01,5304.96,-3850.83,0.0,0.0,0.0,0.0,8
13217.085,20238.3,2896.6949999999997,-6051.014999999999,0.0,0.0,0.0,0.0,8
12117.645,22459.14,1650.6899999999998,-7186.995,0.0,0.0,0.0,0.0,8
11480.76,23770.62,843.5699999999999,-7907.58,0.0,0.0,0.0,0.0,8
10996.47,24845.445,336.91499999999996,-8368.47,0.0,0.0,0.0,0.0,8
12452.805,23281.83,1788.66,-7075.44,0.0,0.0,0.0,0.0,8
13087.845,22060.08,2587.545,-6383.07,0.0,0.0,0.0,0.0,8
14184.405,20424.105,3785.355,-5307.885,0.0,0.0,0.0,0.0,8
15764.895,17816.535,5373.179999999999,-3830.355,0.0,0.0,0.0,0.0,8
13933.485,19463.985,3548.745,-5496.165,0.0,0.0,0.0,0.0,8
12163.365,22256.235,1671.48,-7201.125,0.0,0.0,0.0,0.0,8
11730.645,23487.345,1067.58,-7709.04,0.0,0.0,0.0,0.0,8
10918.305,25043.76,185.445,-8512.154999999999,0.0,0.0,0.0,0.0,8
11996.91,24113.745,1264.365,-7548.75,0.0,0.0,0.0,0.0,8
12986.055,22547.295,2362.5,-6588.99,0.0,0.0,0.0,0.0,8
13613.04,21410.37,3127.455,-5926.724999999999,0.0,0.0,0.0,0.0,8
15575.31,18597.96,5139.2699999999995,-4074.93,0.0,0.0,0.0,0.0,8
14674.86,18808.245,4285.305,-4844.25,0.0,0.0,0.0,0.0,8
12480.03,21842.28,2012.76,-6918.84,0.0,0.0,0.0,0.0,8
11957.355,23277.375,1282.5,-7567.245,0.0,0.0,0.0,0.0,8
10986.615,24871.995,238.995,-8522.055,0.0,0.0,0.0,0.0,8
11467.44,24924.87,695.43,-8129.969999999999,0.0,0.0,0.0,0.0,8
12796.155,23133.78,2081.97,-6876.045,0.0,0.0,0.0,0.0,8
13256.055,22125.195,2689.875,-6352.469999999999,0.0,0.0,0.0,0.0,8
14982.57,19727.595,4474.08,-4736.115,0.0,0.0,0.0,0.0,8
15333.84,18469.575,4853.88,-4364.415,0.0,0.0,0.0,0.0,8
12943.17,21232.08,2460.555,-6544.8,0.0,0.0,0.0,0.0,8
11992.545,23196.33,1325.385,-7583.04,0.0,0.0,0.0,0.0,8
11269.845,24596.55,474.66,-8354.295,0.0,0.0,0.0,0.0,8
10976.625,25577.46,140.985,-8675.414999999999,0.0,0.0,0.0,0.0,8
12474.675,23875.605,1673.01,-7281.63,0.0,0.0,0.0,0.0,8
13059.585,22654.98,2406.87,-6641.82,0.0,0.0,0.0,0.0,8
14249.16,20924.82,3675.195,-5507.639999999999,0.0,0.0,0.0,0.0,8
15555.195,18648.72,5024.429999999999,-4245.389999999999,0.0,0.0,0.0,0.0,8
13634.37,20543.805,3111.0299999999997,-5991.66,0.0,0.0,0.0,0.0,8
12143.115,23028.885,1474.38,-7486.38,0.0,0.0,0.0,0.0,8
11600.91,24225.03,758.2049999999999,-8125.965,0.0,0.0,0.0,0.0,8
10810.395,25745.985,-72.405,-8889.705,0.0,0.0,0.0,0.0,8
12086.37,24620.355,1195.38,-7738.83,0.0,0.0,0.0,0.0,8
12963.06,23115.465,2205.585,-6841.755,0.0,0.0,0.0,0.0,8
13636.71,21935.52,3002.535,-6148.44,0.0,0.0,0.0,0.0,8
15337.62,19363.59,4757.985,-4538.205,0.0,0.0,0.0,0.0,8
14175.135,20007.72,3597.2549999999997,-5596.0199999999995,0.0,0.0,0.0,0.0,8
12262.635,22776.254999999997,1599.975,-7416.63,0.0,0.0,0.0,0.0,8
11836.035,24020.91,1006.65,-7933.094999999999,0.0,0.0,0.0,0.0,8
11045.385,25577.595,104.085,-8758.08,0.0,0.0,0.0,0.0,8
11663.235,25334.504999999997,740.61,-8200.395,0.0,0.0,0.0,0.0,8
12811.86,23654.205,1990.08,-7082.28,0.0,0.0,0.0,0.0,8
13202.235,22696.335,2525.085,-6630.03,0.0,0.0,0.0,0.0,8
14797.71,20440.485,4148.639999999999,-5143.139999999999,0.0,0.0,0.0,0.0,8
14793.3,19724.31,4179.014999999999,-5096.295,0.0,0.0,0.0,0.0,8
12638.79,22348.26,1969.47,-7119.495,0.0,0.0,0.0,0.0,8
11919.87,23919.254999999997,1066.635,-7903.215,0.0,0.0,0.0,0.0,8
11286.09,25244.37,341.41499999999996,-8536.23,0.0,0.0,0.0,0.0,8
11261.16,25836.164999999997,281.43,-8621.55,0.0,0.0,0.0,0.0,8
12628.125,24240.555,1652.895,-7395.389999999999,0.0,0.0,0.0,0.0,8
13016.61,23230.215,2228.985,-6889.86,0.0,0.0,0.0,0.0,8
14078.205,21528.36,3378.87,-5866.83,0.0,0.0,0.0,0.0,8
15073.02,19697.805,4409.775,-4908.51,0.0,0.0,0.0,0.0,8
13141.395,21708.36,2491.56,-6656.219999999999,0.0,0.0,0.0,0.0,8
12036.195,23792.31,1211.31,-7813.665,0.0,0.0,0.0,0.0,8
11653.38,24924.195,665.8199999999999,-8296.56,0.0,0.0,0.0,0.0,8
11023.56,26149.32,17.505,-8907.255,0.0,0.0,0.0,0.0,8
12168.45,24932.07,1164.69,-7873.335,0.0,0.0,0.0,0.0,8
12881.385,23645.925,2012.535,-7130.835,0.0,0.0,0.0,0.0,8
13604.58,22422.42,2829.96,-6422.535,0.0,0.0,0.0,0.0,8
15164.37,19982.295,4431.6449999999995,-4943.5199999999995,0.0,0.0,0.0,0.0,8
13878.225,20895.48,3185.19,-6065.325,0.0,0.0,0.0,0.0,8
12168.045,23473.845,1365.885,-7706.205,0.0,0.0,0.0,0.0,8
11797.875,24610.185,804.06,-8185.23,0.0,0.0,0.0,0.0,8
11019.78,26072.64,-48.78,-8965.529999999999,0.0,0.0,0.0,0.0,8
11793.915,25593.525,667.305,-8348.94,0.0,0.0,0.0,0.0,8
12783.51,24029.145,1773.27,-7358.264999999999,0.0,0.0,0.0,0.0,8
13182.03,23065.47,2385.6749999999997,-6818.94,0.0,0.0,0.0,0.0,8
14807.925,20735.01,4051.125,-5299.065,0.0,0.0,0.0,0.0,8
14544.81,20318.085,3817.62,-5498.505,0.0,0.0,0.0,0.0,8
12510.225,22950.495,1716.345,-7430.31,0.0,0.0,0.0,0.0,8
11941.38,24372.315,948.555,-8116.65,0.0,0.0,0.0,0.0,8
11226.465,25729.335,132.795,-8844.029999999999,0.0,0.0,0.0,0.0,8
11335.77,26153.91,223.92,-8780.13,0.0,0.0,0.0,0.0,8
12652.245,24527.61,1578.375,-7563.375,0.0,0.0,0.0,0.0,8
13068.54,23535.09,2165.1749999999997,-7052.8949999999995,0.0,0.0,0.0,0.0,8
14252.805,21713.985,3421.26,-5918.49,0.0,0.0,0.0,0.0,8
14909.175,20152.26,4118.04,-5257.53,0.0,0.0,0.0,0.0,8
12957.03,22332.375,2164.9049999999997,-7037.054999999999,0.0,0.0,0.0,0.0,8
11907.495,24216.615,925.02,-8157.554999999999,0.0,0.0,0.0,0.0,8
11401.245,25348.545,278.55,-8726.715,0.0,0.0,0.0,0.0,8
11086.785,26470.935,-59.715,-9064.215,0.0,0.0,0.0,0.0,8
12341.88,25115.265,1197.765,-7945.695,0.0,0.0,0.0,0.0,8
12862.62,23888.115,1883.43,-7333.02,0.0,0.0,0.0,0.0,8
13691.88,22603.995,2829.33,-6496.514999999999,0.0,0.0,0.0,0.0,8
15044.94,20378.385,4211.1449999999995,-5217.165,0.0,0.0,0.0,0.0,8
13503.06,21636.675,2703.06,-6581.79,0.0,0.0,0.0,0.0,8
12043.035,23982.66,1131.435,-8012.924999999999,0.0,0.0,0.0,0.0,8
11721.33,25058.655,615.105,-8461.89,0.0,0.0,0.0,0.0,8
10957.545,26493.66,-231.705,-9225.945,0.0,0.0,0.0,0.0,8
11876.265,25802.145,663.39,-8425.395,0.0,0.0,0.0,0.0,8
12810.645,24329.34,1697.58,-7499.79,0.0,0.0,0.0,0.0,8
13224.285,23375.745,2275.83,-7019.19,0.0,0.0,0.0,0.0,8
14773.23,21138.21,3866.76,-5575.455,0.0,0.0,0.0,0.0,8
14160.42,21159.585,3317.9849999999997,-6048.945,0.0,0.0,0.0,0.0,8
12304.665,23750.01,1395.72,-7792.2,0.0,0.0,0.0,0.0,8
11879.775,25043.805,759.375,-8348.13,0.0,0.0,0.0,0.0,8
11055.87,26425.035,-164.295,-9180.18,0.0,0.0,0.0,0.0,8
11486.7,26570.205,229.905,-8840.295,0.0,0.0,0.0,0.0,8
12613.32,24936.84,1429.29,-7760.924999999999,0.0,0.0,0.0,0.0,8
12891.645,23977.395,1887.3,-7389.63,0.0,0.0,0.0,0.0,8
14331.285,22034.385,3385.44,-6040.26,0.0,0.0,0.0,0.0,8
14717.97,20806.56,3830.76,-5604.21,0.0,0.0,0.0,0.0,8
12683.61,23132.07,1792.755,-7465.185,0.0,0.0,0.0,0.0,8
11925.36,24831.315,828.54,-8342.865,0.0,0.0,0.0,0.0,8
11335.725,26010.81,89.46,-8986.59,0.0,0.0,0.0,0.0,8
11029.095,26939.115,-241.74,-9299.07,0.0,0.0,0.0,0.0,8
12339.54,25471.575,1085.895,-8103.24,0.0,0.0,0.0,0.0,8
12858.75,24355.395,1772.955,-7502.715,0.0,0.0,0.0,0.0,8
13745.385,22940.504999999997,2766.51,-6621.48,0.0,0.0,0.0,0.0,8
14972.67,20840.355,4041.045,-5438.655,0.0,0.0,0.0,0.0,8
13301.235,22400.235,2385.9449999999997,-6943.95,0.0,0.0,0.0,0.0,8
11978.46,24628.995,905.31,-8290.44,0.0,0.0,0.0,0.0,8
11623.365,25681.725,360.45,-8774.595,0.0,0.0,0.0,0.0,8
10932.12,27025.245,-391.14,-9486.18,0.0,0.0,0.0,0.0,8
11924.1,26109.405,608.805,-8589.015,0.0,0.0,0.0,0.0,8
12757.23,24717.51,1566.72,-7738.875,0.0,0.0,0.0,0.0,8
13335.435,23685.795,2282.67,-7107.795,0.0,0.0,0.0,0.0,8
14895.585,21325.86,3907.935,-5571.764999999999,0.0,0.0,0.0,0.0,8
13982.4,21679.605,3054.825,-6292.889999999999,0.0,0.0,0.0,0.0,8
12230.01,24258.33,1183.59,-8025.255,0.0,0.0,0.0,0.0,8
11781.18,25438.545,523.845,-8624.88,0.0,0.0,0.0,0.0,8
10951.245,26838.405,-382.185,-9476.73,0.0,0.0,0.0,0.0,8
11476.575,26741.61,114.795,-9043.29,0.0,0.0,0.0,0.0,8
12646.53,25137.225,1389.645,-7885.935,0.0,0.0,0.0,0.0,8
13039.155,24215.265,1954.71,-7398.0,0.0,0.0,0.0,0.0,8
14436.225,22136.175,3426.345,-6064.74,0.0,0.0,0.0,0.0,8
14586.12,21199.41,3593.6099999999997,-5906.25,0.0,0.0,0.0,0.0,8
12506.715,23677.155,1488.4199999999998,-7822.215,0.0,0.0,0.0,0.0,8
11826.945,25270.83,603.72,-8614.755,0.0,0.0,0.0,0.0,8
11308.185,26505.36,-57.915,-9190.17,0.0,0.0,0.0,0.0,8
11139.66,27238.815,-223.335,-9350.325,0.0,0.0,0.0,0.0,8
12399.435,25711.695,1048.23,-8217.63,0.0,0.0,0.0,0.0,8
12814.56,24678.9,1617.48,-7717.905,0.0,0.0,0.0,0.0,8
13822.245,23147.46,2766.1949999999997,-6685.425,0.0,0.0,0.0,0.0,8
14907.78,21211.155,3895.47,-5639.94,0.0,0.0,0.0,0.0,8
13089.015,23032.935,2065.95,-7309.62,0.0,0.0,0.0,0.0,8
11873.565,25145.82,697.05,-8548.695,0.0,0.0,0.0,0.0,8
11503.305,26191.395,162.855,-9010.755,0.0,0.0,0.0,0.0,8
10899.99,27440.1,-491.895,-9620.055,0.0,0.0,0.0,0.0,8
12033.495,26338.004999999997,626.4449999999999,-8610.164999999999,0.0,0.0,0.0,0.0,8
12845.745,25018.065,1560.4199999999998,-7773.03,0.0,0.0,0.0,0.0,8
13464.27,23918.085,2323.26,-7121.295,0.0,0.0,0.0,0.0,8
14925.015,21563.685,3849.795,-5729.8949999999995,0.0,0.0,0.0,0.0,8
13772.295,22255.47,2731.815,-6725.7,0.0,0.0,0.0,0.0,8
12048.12,24786.045,897.3449999999999,-8398.89,0.0,0.0,0.0,0.0,8
11684.52,25924.905,362.115,-8857.619999999999,0.0,0.0,0.0,0.0,8
10912.32,27324.045,-508.005,-9645.885,0.0,0.0,0.0,0.0,8
11632.455,26976.555,205.335,-9011.88,0.0,0.0,0.0,0.0,8
12604.86,25458.885,1257.7949999999998,-8080.11,0.0,0.0,0.0,0.0,8
12956.4,24559.785,1795.185,-7610.625,0.0,0.0,0.0,0.0,8
14507.73,22400.82,3347.19,-6206.8949999999995,0.0,0.0,0.0,0.0,8
14431.86,21799.125,3286.4849999999997,-6263.415,0.0,0.0,0.0,0.0,8
12352.275,24350.58,1213.425,-8139.105,0.0,0.0,0.0,0.0,8
11741.67,25815.33,450.855,-8799.66,0.0,0.0,0.0,0.0,8
11150.55,27071.595,-284.67,-9453.015,0.0,0.0,0.0,0.0,8
11157.93,27581.31,-305.72999999999996,-9493.515,0.0,0.0,0.0,0.0,8
12419.055,26008.289999999997,988.875,-8338.005,0.0,0.0,0.0,0.0,8
12821.58,25028.685,1560.5549999999998,-7841.384999999999,0.0,0.0,0.0,0.0,8
13960.755,23343.705,2798.2799999999997,-6725.969999999999,0.0,0.0,0.0,0.0,8
14851.755,21599.37,3728.34,-5862.78,0.0,0.0,0.0,0.0,8
12962.16,23622.795,1838.115,-7570.304999999999,0.0,0.0,0.0,0.0,8
11824.2,25590.105,547.605,-8737.83,0.0,0.0,0.0,0.0,8
11417.715,26683.65,-27.36,-9256.365,0.0,0.0,0.0,0.0,8
10904.49,27842.085,-576.405,-9778.905,0.0,0.0,0.0,0.0,8
12079.8,26590.68,607.3199999999999,-8705.744999999999,0.0,0.0,0.0,0.0,8
12702.78,25342.92,1363.5,-8031.014999999999,0.0,0.0,0.0,0.0,8
13452.93,24147.18,2251.71,-7237.755,0.0,0.0,0.0,0.0,8
15070.455,21830.94,3873.87,-5743.575,0.0,0.0,0.0,0.0,8
13638.735,22847.355,2437.2,-7064.235,0.0,0.0,0.0,0.0,8
11856.555,25324.965,626.4449999999999,-8701.02,0.0,0.0,0.0,0.0,8
11552.22,26429.129999999997,109.17,-9149.265,0.0,0.0,0.0,0.0,8
10792.53,27893.115,-721.62,-9899.46,0.0,0.0,0.0,0.0,8
11617.065,27445.545,91.395,-9173.43,0.0,0.0,0.0,0.0,8
12599.01,25937.28,1174.77,-8212.14,0.0,0.0,0.0,0.0,8
13015.485,24978.645,1765.935,-7698.195,0.0,0.0,0.0,0.0,8
14649.435,22657.545,3459.915,-6147.179999999999,0.0,0.0,0.0,0.0,8
14287.635,22321.125,3134.295,-6427.125,0.0,0.0,0.0,0.0,8
12262.905,24948.945,1034.73,-8356.815,0.0,0.0,0.0,0.0,8
11719.755,26342.01,294.65999999999997,-9027.09,0.0,0.0,0.0,0.0,8
11029.095,27694.98,-502.245,-9726.075,0.0,0.0,0.0,0.0,8
11138.625,28060.56,-398.16,-9633.825,0.0,0.0,0.0,0.0,8
12353.13,26416.754999999997,869.4449999999999,-8503.065,0.0,0.0,0.0,0.0,8
12773.655,25433.64,1462.6799999999998,-7988.264999999999,0.0,0.0,0.0,0.0,8
14111.685,23616.45,2872.17,-6717.915,0.0,0.0,0.0,0.0,8
14814.945,22096.62,3584.97,-6062.715,0.0,0.0,0.0,0.0,8
12737.925,24360.885,1522.89,-7932.87,0.0,0.0,0.0,0.0,8
11758.905,26268.48,395.145,-8951.265,0.0,0.0,0.0,0.0,8
11279.295,27419.31,-251.415,-9515.25,0.0,0.0,0.0,0.0,8
10837.575,28502.595,-726.5699999999999,-9954.045,0.0,0.0,0.0,0.0,8
12107.43,27083.205,544.905,-8799.255,0.0,0.0,0.0,0.0,8
12693.465,25847.595,1275.93,-8155.08,0.0,0.0,0.0,0.0,8
13569.93,24510.87,2248.92,-7304.804999999999,0.0,0.0,0.0,0.0,8
15053.4,22204.26,3811.005,-5856.615,0.0,0.0,0.0,0.0,8
13396.905,23522.76,2215.305,-7302.69,0.0,0.0,0.0,0.0,8
11837.88,25986.42,513.765,-8857.395,0.0,0.0,0.0,0.0,8
11508.255,27096.975,-33.39,-9344.97,0.0,0.0,0.0,0.0,8
10740.285,28535.22,-871.785,-10107.63,0.0,0.0,0.0,0.0,8
11615.265,27801.585,-1.44,-9328.365,0.0,0.0,0.0,0.0,8
12536.865,26314.605,1054.035,-8380.305,0.0,0.0,0.0,0.0,8
13067.505,25323.57,1734.885,-7788.78,0.0,0.0,0.0,0.0,8
14795.37,22891.41,3514.455,-6165.405,0.0,0.0,0.0,0.0,8
14166.045,22899.42,2942.505,-6665.04,0.0,0.0,0.0,0.0,8
12105.405,25586.955,811.125,-8611.74,0.0,0.0,0.0,0.0,8
11611.935,26876.16,112.185,-9228.825,0.0,0.0,0.0,0.0,8
10912.23,28257.57,-713.745,-9980.955,0.0,0.0,0.0,0.0,8
11231.1,28364.94,-376.11,-9682.02,0.0,0.0,0.0,0.0,8
12440.115,26719.289999999997,902.475,-8528.895,0.0,0.0,0.0,0.0,8
12830.805,25766.595,1470.78,-8040.509999999999,0.0,0.0,0.0,0.0,8
14285.52,23729.715,3006.63,-6650.775,0.0,0.0,0.0,0.0,8
14735.61,22445.595,3525.93,-6141.825,0.0,0.0,0.0,0.0,8
12637.395,24879.105,1397.61,-8084.7,0.0,0.0,0.0,0.0,8
11697.03,26646.3,226.62,-9150.885,0.0,0.0,0.0,0.0,8
11175.795,27833.76,-523.845,-9818.415,0.0,0.0,0.0,0.0,8
10875.735,28733.58,-819.675,-10099.755,0.0,0.0,0.0,0.0,8
12131.37,27248.085,506.61,-8901.945,0.0,0.0,0.0,0.0,8
12676.41,26134.11,1217.205,-8276.535,0.0,0.0,0.0,0.0,8
13677.84,24657.03,2325.645,-7297.02,0.0,0.0,0.0,0.0,8
14942.385,22533.165,3626.19,-6091.695,0.0,0.0,0.0,0.0,8
13153.14,24224.355,1851.93,-7697.384999999999,0.0,0.0,0.0,0.0,8
11804.355,26580.33,325.395,-9080.28,0.0,0.0,0.0,0.0,8
11450.43,27663.39,-175.32,-9505.53,0.0,0.0,0.0,0.0,8
10728.585,29009.52,-925.11,-10206.18,0.0,0.0,0.0,0.0,8
11790.81,28054.485,106.065,-9284.265,0.0,0.0,0.0,0.0,8
12527.685,26662.455,1005.615,-8468.955,0.0,0.0,0.0,0.0,8
13069.035,25599.33,1696.5449999999998,-7864.695,0.0,0.0,0.0,0.0,8
14810.76,23124.96,3475.71,-6238.98,0.0,0.0,0.0,0.0,8
13915.62,23504.58,2619.4049999999997,-7017.03,0.0,0.0,0.0,0.0,8
11971.62,26178.03,589.86,-8870.039999999999,0.0,0.0,0.0,0.0,8
11561.895,27372.555,-36.629999999999995,-9426.15,0.0,0.0,0.0,0.0,8
10806.885,28819.485,-877.8149999999999,-10174.95,0.0,0.0,0.0,0.0,8
11314.53,28715.58,-373.05,-9723.915,0.0,0.0,0.0,0.0,8
12469.41,27055.71,865.305,-8614.89,0.0,0.0,0.0,0.0,8
12872.835,26106.57,1418.22,-8144.145,0.0,0.0,0.0,0.0,8
14411.97,23920.379999999997,3043.845,-6662.565,0.0,0.0,0.0,0.0,8
14544.54,22954.68,3221.055,-6473.429999999999,0.0,0.0,0.0,0.0,8
12383.55,25509.375,1016.235,-8492.715,0.0,0.0,0.0,0.0,8
11672.01,27130.59,132.075,-9280.845,0.0,0.0,0.0,0.0,8
11065.725,28405.53,-614.43,-9942.255,0.0,0.0,0.0,0.0,8
10861.875,29171.97,-843.48,-10168.38,0.0,0.0,0.0,0.0,8
12188.07,27574.2,513.4499999999999,-8937.18,0.0,0.0,0.0,0.0,8
12671.46,26511.075,1160.235,-8377.47,0.0,0.0,0.0,0.0,8
13774.905,24881.625,2365.245,-7300.935,0.0,0.0,0.0,0.0,8
14886.36,22838.76,3510.135,-6235.5599999999995,0.0,0.0,0.0,0.0,8
13003.47,24710.22,1638.36,-7935.344999999999,0.0,0.0,0.0,0.0,8
11747.07,26916.885,229.545,-9211.32,0.0,0.0,0.0,0.0,8
11334.69,28024.83,-357.16499999999996,-9721.215,0.0,0.0,0.0,0.0,8
10671.03,29358.315,-1059.615,-10374.975,0.0,0.0,0.0,0.0,8
11841.345,28227.06,129.105,-9304.47,0.0,0.0,0.0,0.0,8
12617.73,26851.32,1028.61,-8508.33,0.0,0.0,0.0,0.0,8
13215.375,25697.295,1776.06,-7850.79,0.0,0.0,0.0,0.0,8
14867.325,23228.235,3452.7149999999997,-6324.3,0.0,0.0,0.0,0.0,8
13675.095,23939.685,2300.4,-7361.73,0.0,0.0,0.0,0.0,8
11881.035,26558.28,394.92,-9083.79,0.0,0.0,0.0,0.0,8
11589.3,27711.945,-88.38,-9494.505,0.0,0.0,0.0,0.0,8
10731.285,29205.405,-1003.095,-10323.63,0.0,0.0,0.0,0.0,8
11386.935,28883.475,-381.285,-9781.02,0.0,0.0,0.0,0.0,8
12471.03,27216.945,806.895,-8716.904999999999,0.0,0.0,0.0,0.0,8
12895.245,26243.595,1392.48,-8221.86,0.0,0.0,0.0,0.0,8
14528.61,23968.665,3072.645,-6695.73,0.0,0.0,0.0,0.0,8
14390.01,23323.995,2999.205,-6723.134999999999,0.0,0.0,0.0,0.0,8
12202.335,25957.215,761.985,-8762.805,0.0,0.0,0.0,0.0,8
11596.095,27457.379999999997,-28.665,-9474.165,0.0,0.0,0.0,0.0,8
10914.885,28802.97,-832.995,-10197.945,0.0,0.0,0.0,0.0,8
10916.19,29400.525,-858.645,-10240.38,0.0,0.0,0.0,0.0,8
12273.57,27704.61,551.43,-8958.779999999999,0.0,0.0,0.0,0.0,8
12710.61,26641.575,1145.52,-8429.4,0.0,0.0,0.0,0.0,8
13892.985,24890.535,2423.025,-7275.195,0.0,0.0,0.0,0.0,8
14759.91,23102.82,3326.9849999999997,-6436.665,0.0,0.0,0.0,0.0,8
12785.895,25198.379999999997,1341.36,-8252.414999999999,0.0,0.0,0.0,0.0,8
11668.455,27213.795,90.135,-9378.54,0.0,0.0,0.0,0.0,8
11207.385,28337.175,-518.76,-9910.305,0.0,0.0,0.0,0.0,8
10646.145,29605.275,-1137.4199999999998,-10486.845,0.0,0.0,0.0,0.0,8
11938.995,28302.57,163.215,-9312.48,0.0,0.0,0.0,0.0,8
12672.09,26977.68,1023.66,-8545.77,0.0,0.0,0.0,0.0,8
13463.55,25734.51,1967.175,-7706.924999999999,0.0,0.0,0.0,0.0,8
14984.28,23306.805,3516.93,-6283.665,0.0,0.0,0.0,0.0,8
13454.01,24333.75,1998.405,-7677.0,0.0,0.0,0.0,0.0,8
11763.72,26871.885,192.735,-9319.905,0.0,0.0,0.0,0.0,8
11468.43,27989.235,-284.985,-9738.18,0.0,0.0,0.0,0.0,8
10619.19,29509.245,-1204.785,-10585.485,0.0,0.0,0.0,0.0,8
11417.22,28971.315,-387.27,-9837.72,0.0,0.0,0.0,0.0,8
12477.06,27330.21,794.88,-8759.34,0.0,0.0,0.0,0.0,8
12922.785,26351.28,1373.76,-8265.779999999999,0.0,0.0,0.0,0.0,8
14578.515,23990.805,3057.39,-6727.365,0.0,0.0,0.0,0.0,8
14181.57,23673.6,2707.38,-7027.83,0.0,0.0,0.0,0.0,8
12113.505,26361.18,609.03,-8941.904999999999,0.0,0.0,0.0,0.0,8
11607.21,27763.2,-106.74,-9579.69,0.0,0.0,0.0,0.0,8
10844.73,29169.45,-976.32,-10360.8,0.0,0.0,0.0,0.0,8
10984.365,29559.33,-840.3299999999999,-10252.215,0.0,0.0,0.0,0.0,8
12345.345,27822.24,551.2049999999999,-9002.744999999999,0.0,0.0,0.0,0.0,8
12727.17,26794.89,1098.495,-8527.77,0.0,0.0,0.0,0.0,8
13972.23,24885.27,2468.88,-7289.37,0.0,0.0,0.0,0.0,8
14692.32,23334.435,3213.9449999999997,-6601.634999999999,0.0,0.0,0.0,0.0,8
12674.295,25630.02,1185.57,-8444.205,0.0,0.0,0.0,0.0,8
11691.045,27548.235,25.83,-9472.905,0.0,0.0,0.0,0.0,8
11154.42,28728.36,-661.05,-10073.025,0.0,0.0,0.0,0.0,8
10627.11,29860.785,-1204.29,-10596.015,0.0,0.0,0.0,0.0,8
11920.68,28394.865,103.635,-9417.24,0.0,0.0,0.0,0.0,8
12561.93,27136.44,884.88,-8730.225,0.0,0.0,0.0,0.0,8
13384.44,25775.055,1841.085,-7877.969999999999,0.0,0.0,0.0,0.0,8
14853.24,23464.08,3339.765,-6493.724999999999,0.0,0.0,0.0,0.0,8
13313.565,24813.18,1839.6,-7858.889999999999,0.0,0.0,0.0,0.0,8
11771.28,27243.0,164.25,-9376.74,0.0,0.0,0.0,0.0,8
11390.535,28315.395,-428.085,-9890.505,0.0,0.0,0.0,0.0,8
10562.58,29799.629999999997,-1302.03,-10696.77,0.0,0.0,0.0,0.0,8
11537.055,29031.21,-323.37,-9816.21,0.0,0.0,0.0,0.0,8
12560.715,27450.18,808.785,-8797.815,0.0,0.0,0.0,0.0,8
13013.145,26428.59,1413.0449999999998,-8272.71,0.0,0.0,0.0,0.0,8
14613.03,24056.145,3072.06,-6761.07,0.0,0.0,0.0,0.0,8
13996.665,24114.105,2487.825,-7281.585,0.0,0.0,0.0,0.0,8
12031.92,26779.545,436.005,-9154.665,0.0,0.0,0.0,0.0,8
11576.43,28049.175,-214.875,-9724.005,0.0,0.0,0.0,0.0,8
10804.635,29499.93,-1109.2949999999998,-10541.34,0.0,0.0,0.0,0.0,8
11029.275,29641.23,-825.165,-10300.14,0.0,0.0,0.0,0.0,8
12323.655,27914.715,513.36,-9104.085,0.0,0.0,0.0,0.0,8
12770.415,26937.675,1102.005,-8585.91,0.0,0.0,0.0,0.0,8
14088.645,24935.67,2530.5299999999997,-7259.625,0.0,0.0,0.0,0.0,8
14452.92,23719.23,2948.4,-6843.24,0.0,0.0,0.0,0.0,8
12411.225,26121.78,861.2099999999999,-8759.43,0.0,0.0,0.0,0.0,8
11622.06,27839.789999999997,-125.46,-9647.19,0.0,0.0,0.0,0.0,8
11168.46,29065.86,-726.885,-10172.115,0.0,0.0,0.0,0.0,8
10734.435,29997.405,-1128.06,-10567.71,0.0,0.0,0.0,0.0,8
12021.03,28452.33,172.39499999999998,-9400.005,0.0,0.0,0.0,0.0,8
12562.38,27311.76,865.4399999999999,-8789.13,0.0,0.0,0.0,0.0,8
13455.585,25844.76,1870.47,-7886.565,0.0,0.0,0.0,0.0,8
14701.185,23712.57,3141.72,-6711.795,0.0,0.0,0.0,0.0,8
13035.195,25338.51,1498.5449999999998,-8207.279999999999,0.0,0.0,0.0,0.0,8
11712.735,27597.914999999997,34.155,-9538.515,0.0,0.0,0.0,0.0,8
11311.155,28660.004999999997,-547.515,-10047.06,0.0,0.0,0.0,0.0,8
10604.61,30016.62,-1296.585,-10731.915,0.0,0.0,0.0,0.0,8
11656.98,29057.445,-242.01,-9778.365,0.0,0.0,0.0,0.0,8
12480.255,27681.12,710.8199999999999,-8929.89,0.0,0.0,0.0,0.0,8
13041.855,26630.91,1403.19,-8331.345,0.0,0.0,0.0,0.0,8
14674.77,24209.955,3083.13,-6784.785,0.0,0.0,0.0,0.0,8
13732.785,24620.265,2189.115,-7579.889999999999,0.0,0.0,0.0,0.0,8
11880.99,27238.41,236.34,-9366.165,0.0,0.0,0.0,0.0,8
11473.875,28410.12,-361.26,-9886.905,0.0,0.0,0.0,0.0,8
10748.25,29800.485,-1171.1699999999998,-10614.24,0.0,0.0,0.0,0.0,8
11309.895,29643.885,-606.465,-10116.945,0.0,0.0,0.0,0.0,8
12402.72,28048.23,571.86,-9059.13,0.0,0.0,0.0,0.0,8
12722.985,27120.33,1046.115,-8657.865,0.0,0.0,0.0,0.0,8
14192.55,24977.52,2587.275,-7250.4,0.0,0.0,0.0,0.0,8
14297.445,24072.66,2730.7799999999997,-7102.71,0.0,0.0,0.0,0.0,8
12237.345,26619.03,634.86,-9017.37,0.0,0.0,0.0,0.0,8
11545.695,28198.485,-248.715,-9805.545,0.0,0.0,0.0,0.0,8
10966.41,29402.46,-951.21,-10429.92,0.0,0.0,0.0,0.0,8
10862.55,30051.18,-1085.85,-10570.545,0.0,0.0,0.0,0.0,8
12062.88,28516.545,164.07,-9434.97,0.0,0.0,0.0,0.0,8
12562.695,27510.254999999997,825.48,-8855.505,0.0,0.0,0.0,0.0,8
13732.155,25879.77,2102.625,-7707.509999999999,0.0,0.0,0.0,0.0,8
14778.45,23903.1,3149.91,-6755.04,0.0,0.0,0.0,0.0,8
12884.31,25797.24,1247.535,-8477.145,0.0,0.0,0.0,0.0,8
11630.295,27921.33,-114.12,-9694.125,0.0,0.0,0.0,0.0,8
11213.685,28966.32,-694.305,-10206.405,0.0,0.0,0.0,0.0,8
10664.145,30205.17,-1286.01,-10756.665,0.0,0.0,0.0,0.0,8
11768.67,29149.875,-169.33499999999998,-9753.39,0.0,0.0,0.0,0.0,8
12428.28,27911.205,635.985,-9040.545,0.0,0.0,0.0,0.0,8
13085.91,26770.95,1422.72,-8351.64,0.0,0.0,0.0,0.0,8
14723.46,24363.72,3072.555,-6831.495,0.0,0.0,0.0,0.0,8
13523.895,25114.86,1924.47,-7859.384999999999,0.0,0.0,0.0,0.0,8
11762.37,27671.355,75.465,-9548.865,0.0,0.0,0.0,0.0,8
11410.65,28765.485,-467.64,-10020.285,0.0,0.0,0.0,0.0,8
10725.39,30061.17,-1245.105,-10725.615,0.0,0.0,0.0,0.0,8
11387.835,29661.66,-586.89,-10135.935,0.0,0.0,0.0,0.0,8
12347.325,28236.51,479.385,-9182.565,0.0,0.0,0.0,0.0,8
12768.66,27320.58,1038.51,-8707.365,0.0,0.0,0.0,0.0,8
14338.395,25064.91,2665.62,-7218.405,0.0,0.0,0.0,0.0,8
14237.82,24456.87,2624.085,-7230.465,0.0,0.0,0.0,0.0,8
12210.075,27046.26,547.65,-9120.24,0.0,0.0,0.0,0.0,8
11547.405,28482.885,-303.57,-9895.545,0.0,0.0,0.0,0.0,8
10916.955,29663.73,-1069.065,-10591.47,0.0,0.0,0.0,0.0,8
11028.555,30052.26,-969.885,-10516.905,0.0,0.0,0.0,0.0,8
12136.23,28598.22,209.52,-9435.24,0.0,0.0,0.0,0.0,8
12531.51,27684.629999999997,774.225,-8940.24,0.0,0.0,0.0,0.0,8
13756.545,25950.914999999997,2068.875,-7776.405,0.0,0.0,0.0,0.0,8
14567.895,24222.78,2942.685,-6949.349999999999,0.0,0.0,0.0,0.0,8
12634.875,26280.36,1006.83,-8709.21,0.0,0.0,0.0,0.0,8
11610.72,28231.83,-187.785,-9785.115,0.0,0.0,0.0,0.0,8
11210.67,29253.06,-745.9649999999999,-10273.455,0.0,0.0,0.0,0.0,8
10859.445,30208.545,-1153.89,-10664.955,0.0,0.0,0.0,0.0,8
11942.28,29020.365,-89.19,-9719.865,0.0,0.0,0.0,0.0,8
12437.91,27928.485,601.245,-9102.24,0.0,0.0,0.0,0.0,8
13165.605,26718.03,1472.94,-8334.404999999999,0.0,0.0,0.0,0.0,8
14661.045,24398.504999999997,2990.79,-6928.469999999999,0.0,0.0,0.0,0.0,8
13334.175,25457.085,1674.54,-8120.205,0.0,0.0,0.0,0.0,8
11724.435,27878.76,-32.265,-9676.44,0.0,0.0,0.0,0.0,8
11368.575,28921.185,-572.5799999999999,-10136.07,0.0,0.0,0.0,0.0,8
10812.375,30167.145,-1196.145,-10706.265,0.0,0.0,0.0,0.0,8
11582.595,29603.835,-433.08,-10023.57,0.0,0.0,0.0,0.0,8
12346.875,28279.305,472.32,-9219.24,0.0,0.0,0.0,0.0,8
12780.27,27341.91,1058.13,-8709.705,0.0,0.0,0.0,0.0,8
14333.895,25107.345,2649.24,-7259.715,0.0,0.0,0.0,0.0,8
13916.7,24893.504999999997,2228.76,-7641.495,0.0,0.0,0.0,0.0,8
11988.45,27420.254999999997,224.865,-9461.925,0.0,0.0,0.0,0.0,8
11562.21,28687.23,-334.97999999999996,-9933.21,0.0,0.0,0.0,0.0,8
10987.515,29866.635,-1014.66,-10542.105,0.0,0.0,0.0,0.0,8
11123.73,30002.355,-901.62,-10472.355,0.0,0.0,0.0,0.0,8
12154.995,28560.015,182.655,-9499.32,0.0,0.0,0.0,0.0,8
12543.12,27679.455,753.03,-8992.125,0.0,0.0,0.0,0.0,8
13842.045,25920.585,2134.395,-7742.205,0.0,0.0,0.0,0.0,8
14353.92,24575.04,2672.235,-7244.639999999999,0.0,0.0,0.0,0.0,8
12416.85,26741.295,720.9449999999999,-9019.53,0.0,0.0,0.0,0.0,8
11576.835,28418.58,-271.98,-9903.42,0.0,0.0,0.0,0.0,8
11155.77,29469.195,-844.425,-10398.555,0.0,0.0,0.0,0.0,8
10919.16,30288.42,-1128.51,-10667.205,0.0,0.0,0.0,0.0,8
12000.96,29039.76,-15.975,-9666.09,0.0,0.0,0.0,0.0,8
12468.33,28023.615,627.7049999999999,-9100.845,0.0,0.0,0.0,0.0,8
13175.1,26780.4,1449.63,-8388.449999999999,0.0,0.0,0.0,0.0,8
14371.56,24767.325,2678.13,-7262.099999999999,0.0,0.0,0.0,0.0,8
12945.24,26081.595,1265.76,-8536.14,0.0,0.0,0.0,0.0,8
11711.43,28158.21,-107.325,-9773.595,0.0,0.0,0.0,0.0,8
11338.92,29199.465,-642.105,-10233.585,0.0,0.0,0.0,0.0,8
10743.795,30429.495,-1322.145,-10863.765,0.0,0.0,0.0,0.0,8
11631.195,29674.395,-430.29,-10059.39,0.0,0.0,0.0,0.0,8
12349.215,28426.77,429.435,-9290.79,0.0,0.0,0.0,0.0,8
12745.98,27503.91,995.535,-8797.14,0.0,0.0,0.0,0.0,8
14104.575,25473.735,2416.005,-7502.085,0.0,0.0,0.0,0.0,8
13385.925,25725.735,1734.075,-8122.32,0.0,0.0,0.0,0.0,8
11834.145,27943.785,90.9,-9606.78,0.0,0.0,0.0,0.0,8
11526.03,28984.905,-434.655,-10058.805,0.0,0.0,0.0,0.0,8
10853.505,30225.555,-1195.965,-10738.395,0.0,0.0,0.0,0.0,8
11243.97,30172.635,-824.13,-10414.53,0.0,0.0,0.0,0.0,8
12225.555,28762.47,240.885,-9465.345,0.0,0.0,0.0,0.0,8
12526.875,27928.035,708.7049999999999,-9071.415,0.0,0.0,0.0,0.0,8
13622.535,26284.815,1891.44,-8005.094999999999,0.0,0.0,0.0,0.0,8
13779.945,25514.235,2092.545,-7800.255,0.0,0.0,0.0,0.0,8
12119.265,27540.539999999997,379.62,-9364.275,0.0,0.0,0.0,0.0,8
11536.92,28776.96,-379.035,-10035.855,0.0,0.0,0.0,0.0,8
11069.415,29867.355,-989.01,-10574.1,0.0,0.0,0.0,0.0,8
10962.405,30569.355,-1147.41,-10741.41,0.0,0.0,0.0,0.0,8
12054.15,29177.37,-14.085,-9713.7,0.0,0.0,0.0,0.0,8
12428.1,28206.27,558.0,-9194.805,0.0,0.0,0.0,0.0,8
13143.645,27005.039999999997,1402.335,-8454.51,0.0,0.0,0.0,0.0,8
13972.32,25497.945,2277.135,-7648.065,0.0,0.0,0.0,0.0,8
12484.305,27072.81,780.03,-9009.315,0.0,0.0,0.0,0.0,8
11606.625,28690.02,-271.34999999999997,-9961.29,0.0,0.0,0.0,0.0,8
11250.72,29618.955,-782.685,-10395.18,0.0,0.0,0.0,0.0,8
10674.405,30809.295,-1417.23,-10976.445,0.0,0.0,0.0,0.0,8
11679.93,29822.31,-417.24,-10073.52,0.0,0.0,0.0,0.0,8
12372.795,28564.245,419.4,-9346.05,0.0,0.0,0.0,0.0,8
12802.095,27651.96,1017.675,-8844.21,0.0,0.0,0.0,0.0,8
13885.11,25863.48,2169.585,-7781.715,0.0,0.0,0.0,0.0,8
12969.81,26483.76,1280.88,-8568.404999999999,0.0,0.0,0.0,0.0,8
11734.47,28379.789999999997,-96.48,-9806.085,0.0,0.0,0.0,0.0,8
11429.1,29295.27,-574.47,-10220.58,0.0,0.0,0.0,0.0,8
10721.07,30624.57,-1351.755,-10924.515,0.0,0.0,0.0,0.0,8
11239.245,30362.31,-856.17,-10484.685,0.0,0.0,0.0,0.0,8
12186.225,28865.52,166.635,-9562.5,0.0,0.0,0.0,0.0,8
12587.22,28040.535,743.22,-9064.08,0.0,0.0,0.0,0.0,8
13659.255,26431.47,1899.315,-8027.73,0.0,0.0,0.0,0.0,8
13477.005,26014.725,1770.705,-8134.65,0.0,0.0,0.0,0.0,8
11964.78,27982.664999999997,184.32,-9579.42,0.0,0.0,0.0,0.0,8
11558.07,29064.96,-422.865,-10099.53,0.0,0.0,0.0,0.0,8
10927.215,30235.725,-1154.88,-10737.315,0.0,0.0,0.0,0.0,8
10840.68,30815.775,-1262.655,-10857.105,0.0,0.0,0.0,0.0,8
12013.335,29315.565,-53.46,-9777.15,0.0,0.0,0.0,0.0,8
12449.79,28368.585,544.635,-9253.305,0.0,0.0,0.0,0.0,8
13217.31,27106.65,1411.47,-8489.475,0.0,0.0,0.0,0.0,8
13730.355,25853.535,2008.53,-7929.63,0.0,0.0,0.0,0.0,8
12298.635,27457.02,559.395,-9238.905,0.0,0.0,0.0,0.0,8
11671.155,28824.12,-251.415,-9955.755,0.0,0.0,0.0,0.0,8
11201.175,29786.22,-874.2149999999999,-10507.5,0.0,0.0,0.0,0.0,8
10559.25,30976.92,-1556.19,-11141.235,0.0,0.0,0.0,0.0,8
11692.62,29827.62,-418.68,-10111.59,0.0,0.0,0.0,0.0,8
12367.125,28605.33,370.62,-9418.185,0.0,0.0,0.0,0.0,8
12805.11,27660.42,970.515,-8895.465,0.0,0.0,0.0,0.0,8
13792.905,26044.245,2045.835,-7902.495,0.0,0.0,0.0,0.0,8
12812.535,26912.835,1082.295,-8772.029999999999,0.0,0.0,0.0,0.0,8
11768.805,28596.645,-123.03,-9860.535,0.0,0.0,0.0,0.0,8
11358.675,29452.77,-697.275,-10366.245,0.0,0.0,0.0,0.0,8
10559.34,30827.655,-1541.7,-11126.205,0.0,0.0,0.0,0.0,8
11270.52,30388.365,-852.93,-10514.565,0.0,0.0,0.0,0.0,8
12257.19,28889.37,244.98,-9520.875,0.0,0.0,0.0,0.0,8
12559.14,28057.905,695.88,-9146.79,0.0,0.0,0.0,0.0,8
13580.37,26461.44,1792.395,-8164.125,0.0,0.0,0.0,0.0,8
13196.385,26334.945,1458.135,-8446.095,0.0,0.0,0.0,0.0,8
11871.63,28189.89,43.695,-9710.685,0.0,0.0,0.0,0.0,8
11598.525,29171.385,-445.68,-10125.27,0.0,0.0,0.0,0.0,8
10842.48,30408.164999999997,-1281.78,-10888.065,0.0,0.0,0.0,0.0,8
10880.235,30803.4,-1233.315,-10860.615,0.0,0.0,0.0,0.0,8
12062.97,29232.81,2.385,-9745.605,0.0,0.0,0.0,0.0,8
12412.575,28301.129999999997,493.47,-9325.53,0.0,0.0,0.0,0.0,8
13204.215,27001.575,1385.235,-8531.055,0.0,0.0,0.0,0.0,8
13579.47,25995.96,1810.305,-8136.27,0.0,0.0,0.0,0.0,8
12131.415,27668.43,336.96,-9476.055,0.0,0.0,0.0,0.0,8
11590.47,28907.055,-377.505,-10101.735,0.0,0.0,0.0,0.0,8
11109.015,29933.504999999997,-1014.075,-10654.56,0.0,0.0,0.0,0.0,8
10630.17,30988.395,-1525.995,-11132.235,0.0,0.0,0.0,0.0,8
11763.405,29730.465,-359.55,-10080.045,0.0,0.0,0.0,0.0,8
12337.74,28601.01,369.27,-9440.01,0.0,0.0,0.0,0.0,8
12883.86,27593.73,1044.585,-8851.545,0.0,0.0,0.0,0.0,8
13746.96,26027.055,1971.09,-7995.915,0.0,0.0,0.0,0.0,8
12557.205,27099.585,778.86,-9067.5,0.0,0.0,0.0,0.0,8
11655.81,28682.55,-272.7,-10022.445,0.0,0.0,0.0,0.0,8
11321.055,29558.34,-777.78,-10453.005,0.0,0.0,0.0,0.0,8
10638.045,30883.455,-1524.105,-11130.435,0.0,0.0,0.0,0.0,8
11414.88,30238.56,-763.02,-10458.18,0.0,0.0,0.0,0.0,8
12253.41,28859.355,173.16,-9630.045,0.0,0.0,0.0,0.0,8
12580.245,28019.385,703.0799999999999,-9167.04,0.0,0.0,0.0,0.0,8
13643.505,26362.98,1854.405,-8120.565,0.0,0.0,0.0,0.0,8
13074.93,26514.72,1313.865,-8601.93,0.0,0.0,0.0,0.0,8
11766.465,28379.07,-107.955,-9887.175,0.0,0.0,0.0,0.0,8
11443.545,29316.555,-631.125,-10336.68,0.0,0.0,0.0,0.0,8
10759.635,30580.335,-1414.845,-11039.265,0.0,0.0,0.0,0.0,8
11062.53,30739.095,-1100.43,-10759.005,0.0,0.0,0.0,0.0,8
12126.645,29243.925,39.059999999999995,-9731.34,0.0,0.0,0.0,0.0,8
12408.48,28384.56,463.23,-9387.09,0.0,0.0,0.0,0.0,8
13292.82,26965.305,1453.995,-8493.57,0.0,0.0,0.0,0.0,8
13502.745,26132.58,1720.62,-8233.199999999999,0.0,0.0,0.0,0.0,8
12011.04,27921.465,183.06,-9631.44,0.0,0.0,0.0,0.0,8
11496.87,29106.945,-531.54,-10267.38,0.0,0.0,0.0,0.0,8
11007.9,30170.97,-1143.54,-10802.7,0.0,0.0,0.0,0.0,8
10732.365,31024.754999999997,-1445.445,-11096.055,0.0,0.0,0.0,0.0,8
11861.82,29691.585,-286.83,-10031.67,0.0,0.0,0.0,0.0,8
12316.32,28670.76,323.865,-9490.14,0.0,0.0,0.0,0.0,8
12927.015,27599.085,1039.32,-8880.57,0.0,0.0,0.0,0.0,8
13752.945,26112.555,1924.605,-8079.48,0.0,0.0,0.0,0.0,8
12407.535,27398.295,618.7049999999999,-9261.135,0.0,0.0,0.0,0.0,8
11544.84,28914.795,-402.03,-10167.885,0.0,0.0,0.0,0.0,8
11239.92,29793.105,-883.395,-10563.57,0.0,0.0,0.0,0.0,8
10590.255,31027.635,-1594.98,-11208.915,0.0,0.0,0.0,0.0,8
11443.635,30207.195,-741.6899999999999,-10449.315,0.0,0.0,0.0,0.0,8
12198.33,28952.145,129.96,-9679.005,0.0,0.0,0.0,0.0,8
12587.58,28086.164999999997,692.3249999999999,-9189.945,0.0,0.0,0.0,0.0,8
13662.45,26377.335,1831.455,-8158.23,0.0,0.0,0.0,0.0,8
12930.12,26758.215,1117.935,-8797.32,0.0,0.0,0.0,0.0,8
11757.285,28539.945,-149.04,-9949.005,0.0,0.0,0.0,0.0,8
11477.88,29414.745,-617.715,-10352.52,0.0,0.0,0.0,0.0,8
10744.92,30660.345,-1450.26,-11094.705,0.0,0.0,0.0,0.0,8
11154.105,30565.26,-1049.58,-10744.29,0.0,0.0,0.0,0.0,8
12134.925,29125.53,27.18,-9775.395,0.0,0.0,0.0,0.0,8
12468.645,28310.85,522.3149999999999,-9349.155,0.0,0.0,0.0,0.0,8
13409.955,26794.98,1557.0449999999998,-8416.485,0.0,0.0,0.0,0.0,8
13405.635,26171.19,1588.095,-8383.095,0.0,0.0,0.0,0.0,8
11906.685,28045.395,42.66,-9786.015,0.0,0.0,0.0,0.0,8
11487.285,29156.31,-565.74,-10313.37,0.0,0.0,0.0,0.0,8
10981.98,30237.03,-1203.165,-10873.17,0.0,0.0,0.0,0.0,8
10803.51,30927.06,-1407.015,-11074.14,0.0,0.0,0.0,0.0,8
11894.58,29580.93,-273.24,-10057.365,0.0,0.0,0.0,0.0,8
12292.785,28648.8,295.245,-9560.655,0.0,0.0,0.0,0.0,8
13001.13,27472.635,1119.6,-8835.615,0.0,0.0,0.0,0.0,8
13712.4,26057.52,1885.41,-8123.31,0.0,0.0,0.0,0.0,8
12328.83,27534.6,498.33,-9363.6,0.0,0.0,0.0,0.0,8
11595.285,29007.99,-400.32,-10164.69,0.0,0.0,0.0,0.0,8
11204.1,29910.195,-969.435,-10669.455,0.0,0.0,0.0,0.0,8
10643.085,31009.5,-1620.945,-11280.06,0.0,0.0,0.0,0.0,8
11623.995,30014.1,-651.375,-10426.77,0.0,0.0,0.0,0.0,8
12224.205,28850.129999999997,139.59,-9704.655,0.0,0.0,0.0,0.0,8
12633.615,27990.855,757.17,-9156.645,0.0,0.0,0.0,0.0,8
13725.63,26315.37,1903.995,-8115.84,0.0,0.0,0.0,0.0,8
12818.43,26972.595,1005.39,-8927.73,0.0,0.0,0.0,0.0,8
11668.455,28844.64,-278.64,-10099.665,0.0,0.0,0.0,0.0,8
11333.97,29746.574999999997,-804.6899999999999,-10544.31,0.0,0.0,0.0,0.0,8
10607.895,30996.36,-1603.485,-11258.055,0.0,0.0,0.0,0.0,8
11197.035,30679.875,-1020.555,-10734.12,0.0,0.0,0.0,0.0,8
12110.895,29303.1,-27.09,-9847.44,0.0,0.0,0.0,0.0,8
12448.305,28504.215,462.96,-9445.32,0.0,0.0,0.0,0.0,8
13537.17,26871.885,1668.015,-8363.115,0.0,0.0,0.0,0.0,8
13337.325,26483.31,1512.72,-8500.68,0.0,0.0,0.0,0.0,8
11805.525,28417.41,-93.375,-9949.005,0.0,0.0,0.0,0.0,8
11427.12,29448.81,-653.5799999999999,-10407.96,0.0,0.0,0.0,0.0,8
10861.47,30540.87,-1347.75,-11008.665,0.0,0.0,0.0,0.0,8
10872.495,30968.595,-1361.565,-11033.55,0.0,0.0,0.0,0.0,8
11980.89,29610.045,-206.145,-9996.345,0.0,0.0,0.0,0.0,8
12350.97,28746.135,324.27,-9539.235,0.0,0.0,0.0,0.0,8
13149.54,27452.789999999997,1213.245,-8767.485,0.0,0.0,0.0,0.0,8
13650.255,26178.03,1790.82,-8232.75,0.0,0.0,0.0,0.0,8
12159.18,27854.37,292.635,-9590.625,0.0,0.0,0.0,0.0,8
11489.895,29279.385,-549.27,-10334.52,0.0,0.0,0.0,0.0,8
11111.58,30196.845,-1077.705,-10797.165,0.0,0.0,0.0,0.0,8
10666.08,31169.655,-1551.6,-11230.965,0.0,0.0,0.0,0.0,8
11691.585,30049.695,-535.3199999999999,-10317.78,0.0,0.0,0.0,0.0,8
12252.105,28929.645,173.61,-9688.365,0.0,0.0,0.0,0.0,8
12770.73,27957.555,862.3349999999999,-9077.67,0.0,0.0,0.0,0.0,8
13816.935,26220.914999999997,1947.735,-8082.45,0.0,0.0,0.0,0.0,8
12670.38,27106.515,815.355,-9119.745,0.0,0.0,0.0,0.0,8
11595.51,28860.435,-417.42,-10256.715,0.0,0.0,0.0,0.0,8
11314.26,29730.465,-866.88,-10627.695,0.0,0.0,0.0,0.0,8
10665.18,30954.645,-1565.0549999999998,-11246.85,0.0,0.0,0.0,0.0,8
11345.4,30458.205,-896.895,-10653.48,0.0,0.0,0.0,0.0,8
12124.89,29158.245,-9.81,-9863.595,0.0,0.0,0.0,0.0,8
12480.165,28345.995,503.775,-9426.51,0.0,0.0,0.0,0.0,8
13597.11,26647.245,1701.765,-8349.3,0.0,0.0,0.0,0.0,8
13196.385,26509.004999999997,1338.84,-8680.635,0.0,0.0,0.0,0.0,8
11744.1,28448.01,-198.945,-10064.655,0.0,0.0,0.0,0.0,8
11446.065,29443.095,-689.31,-10466.28,0.0,0.0,0.0,0.0,8
10892.745,30586.41,-1352.4299999999998,-11045.025,0.0,0.0,0.0,0.0,8
11046.15,30830.625,-1230.03,-10953.945,0.0,0.0,0.0,0.0,8
11976.12,29456.414999999997,-229.905,-10056.42,0.0,0.0,0.0,0.0,8
12322.755,28635.3,305.055,-9595.17,0.0,0.0,0.0,0.0,8
13218.705,27248.22,1316.61,-8686.08,0.0,0.0,0.0,0.0,8
13585.86,26165.43,1730.115,-8309.835,0.0,0.0,0.0,0.0,8
12036.24,27929.745,150.435,-9743.04,0.0,0.0,0.0,0.0,8
11506.095,29227.275,-579.015,-10376.415,0.0,0.0,0.0,0.0,8
11151.9,30208.455,-1072.53,-10797.03,0.0,0.0,0.0,0.0,8
10749.915,31078.26,-1512.855,-11222.91,0.0,0.0,0.0,0.0,8
11717.37,29865.33,-537.165,-10348.155,0.0,0.0,0.0,0.0,8
12224.07,28843.245,136.665,-9756.72,0.0,0.0,0.0,0.0,8
12841.29,27809.055,890.3249999999999,-9094.77,0.0,0.0,0.0,0.0,8
13802.625,26143.515,1911.96,-8158.634999999999,0.0,0.0,0.0,0.0,8
12526.695,27261.675,640.305,-9312.75,0.0,0.0,0.0,0.0,8
11540.25,28940.895,-499.68,-10333.395,0.0,0.0,0.0,0.0,8
11259.405,29809.485,-949.68,-10710.315,0.0,0.0,0.0,0.0,8
10653.57,31002.03,-1608.75,-11308.455,0.0,0.0,0.0,0.0,8
11429.595,30326.985,-832.905,-10612.215,0.0,0.0,0.0,0.0,8
12151.35,29071.98,14.76,-9857.52,0.0,0.0,0.0,0.0,8
12514.005,28247.31,537.03,-9405.63,0.0,0.0,0.0,0.0,8
13672.485,26503.65,1765.8,-8291.52,0.0,0.0,0.0,0.0,8
13067.865,26648.325,1208.61,-8787.33,0.0,0.0,0.0,0.0,8
11709.18,28595.295,-268.28999999999996,-10131.3,0.0,0.0,0.0,0.0,8
11408.13,29529.629999999997,-774.0899999999999,-10566.765,0.0,0.0,0.0,0.0,8
10805.805,30705.57,-1511.19,-11233.8,0.0,0.0,0.0,0.0,8
11073.285,30761.82,-1215.18,-10962.495,0.0,0.0,0.0,0.0,8
12026.205,29372.76,-159.93,-10010.34,0.0,0.0,0.0,0.0,8
12340.305,28559.34,315.36,-9614.88,0.0,0.0,0.0,0.0,8
13324.86,27074.61,1395.765,-8640.945,0.0,0.0,0.0,0.0,8
13539.465,26205.795,1660.005,-8386.605,0.0,0.0,0.0,0.0,8
11962.17,28056.33,37.98,-9864.585,0.0,0.0,0.0,0.0,8
11453.85,29254.275,-659.34,-10479.735,0.0,0.0,0.0,0.0,8
10995.615,30272.085,-1258.11,-10999.305,0.0,0.0,0.0,0.0,8
10762.695,31028.625,-1516.275,-11242.71,0.0,0.0,0.0,0.0,8
11823.57,29746.305,-421.155,-10255.68,0.0,0.0,0.0,0.0,8
12235.815,28790.01,143.505,-9767.52,0.0,0.0,0.0,0.0,8
12885.93,27692.145,924.66,-9078.795,0.0,0.0,0.0,0.0,8
13737.33,26141.985,1837.08,-8236.664999999999,0.0,0.0,0.0,0.0,8
12385.98,27471.735,479.9249999999999,-9455.22,0.0,0.0,0.0,0.0,8
11625.165,29057.49,-493.515,-10328.58,0.0,0.0,0.0,0.0,8
11347.56,29931.75,-963.72,-10743.795,0.0,0.0,0.0,0.0,8
10593.585,31118.58,-1688.715,-11424.555,0.0,0.0,0.0,0.0,8
11478.105,30243.375,-780.93,-10599.615,0.0,0.0,0.0,0.0,8
12183.345,28985.76,20.25,-9883.89,0.0,0.0,0.0,0.0,8
12601.35,28130.625,598.095,-9385.65,0.0,0.0,0.0,0.0,8
13697.505,26347.32,1782.0,-8308.755,0.0,0.0,0.0,0.0,8
12936.465,26719.92,1042.515,-8961.345,0.0,0.0,0.0,0.0,8
11663.685,28593.81,-349.60499999999996,-10217.025,0.0,0.0,0.0,0.0,8
11403.18,29487.69,-821.2049999999999,-10639.845,0.0,0.0,0.0,0.0,8
10692.27,30755.07,-1593.54,-11333.655,0.0,0.0,0.0,0.0,8
11101.455,30648.24,-1175.6699999999998,-10956.78,0.0,0.0,0.0,0.0,8
12074.31,29236.41,-131.355,-10007.145,0.0,0.0,0.0,0.0,8
12364.785,28427.535,324.045,-9615.78,0.0,0.0,0.0,0.0,8
13409.82,26859.78,1458.1799999999998,-8599.545,0.0,0.0,0.0,0.0,8
13448.655,26241.615,1544.6699999999998,-8506.89,0.0,0.0,0.0,0.0,8
11942.505,28154.205,-10.62,-9915.03,0.0,0.0,0.0,0.0,8
11417.175,29254.095,-725.22,-10549.89,0.0,0.0,0.0,0.0,8
10881.405,30348.629999999997,-1438.02,-11193.12,0.0,0.0,0.0,0.0,8
10786.68,30975.66,-1548.99,-11312.055,0.0,0.0,0.0,0.0,8
11899.53,29602.305,-328.09499999999997,-10186.02,0.0,0.0,0.0,0.0,8
12368.43,28680.12,301.22999999999996,-9632.34,0.0,0.0,0.0,0.0,8
13088.16,27473.22,1081.8,-8966.565,0.0,0.0,0.0,0.0,8
13701.78,26028.18,1753.785,-8348.985,0.0,0.0,0.0,0.0,8
12202.56,27521.955,287.90999999999997,-9666.495,0.0,0.0,0.0,0.0,8
11483.865,29005.65,-611.3249999999999,-10472.265,0.0,0.0,0.0,0.0,8
11126.475,29928.69,-1136.88,-10918.98,0.0,0.0,0.0,0.0,8
10553.535,31042.89,-1764.3149999999998,-11495.43,0.0,0.0,0.0,0.0,8
11564.325,30041.46,-774.225,-10610.28,0.0,0.0,0.0,0.0,8
12201.21,28890.045,26.73,-9892.44,0.0,0.0,0.0,0.0,8
12619.89,27994.004999999997,647.595,-9354.195,0.0,0.0,0.0,0.0,8
13747.365,26226.225,1809.27,-8294.895,0.0,0.0,0.0,0.0,8
12805.29,26883.27,877.185,-9136.89,0.0,0.0,0.0,0.0,8
11618.37,28731.555,-416.34,-10302.705,0.0,0.0,0.0,0.0,8
11336.445,29622.824999999997,-891.405,-10710.315,0.0,0.0,0.0,0.0,8
10624.275,30872.61,-1681.47,-11424.195,0.0,0.0,0.0,0.0,8
11186.28,30538.26,-1114.29,-10917.045,0.0,0.0,0.0,0.0,8
12077.28,29169.36,-129.78,-10036.845,0.0,0.0,0.0,0.0,8
12407.175,28362.105,362.385,-9617.715,0.0,0.0,0.0,0.0,8
13507.65,26694.27,1549.26,-8544.195,0.0,0.0,0.0,0.0,8
13315.185,26311.095,1393.56,-8677.664999999999,0.0,0.0,0.0,0.0,8
11812.995,28251.72,-183.33,-10115.19,0.0,0.0,0.0,0.0,8
11407.68,29287.575,-778.9499999999999,-10636.2,0.0,0.0,0.0,0.0,8
10839.51,30418.245,-1461.33,-11234.07,0.0,0.0,0.0,0.0,8
10897.335,30838.77,-1426.59,-11205.36,0.0,0.0,0.0,0.0,8
11915.55,29453.625,-344.115,-10222.245,0.0,0.0,0.0,0.0,8
12259.755,28591.155,163.125,-9795.285,0.0,0.0,0.0,0.0,8
13125.69,27281.43,1134.81,-8924.13,0.0,0.0,0.0,0.0,8
13733.55,26031.69,1792.8,-8311.14,0.0,0.0,0.0,0.0,8
12144.51,27713.655,188.19,-9779.58,0.0,0.0,0.0,0.0,8
11437.245,29116.305,-688.14,-10555.065,0.0,0.0,0.0,0.0,8
11062.62,30070.35,-1225.08,-11018.745,0.0,0.0,0.0,0.0,8
10649.205,31054.59,-1676.385,-11436.435,0.0,0.0,0.0,0.0,8
11658.78,29938.095,-639.675,-10498.545,0.0,0.0,0.0,0.0,8
12161.745,28882.305,8.73,-9936.63,0.0,0.0,0.0,0.0,8
12732.48,27902.879999999997,713.0699999999999,-9317.34,0.0,0.0,0.0,0.0,8
13794.345,26154.405,1830.465,-8299.44,0.0,0.0,0.0,0.0,8
12607.245,27079.605,671.76,-9352.98,0.0,0.0,0.0,0.0,8
11529.315,28848.33,-544.3199999999999,-10449.63,0.0,0.0,0.0,0.0,8
11264.85,29720.115,-994.68,-10832.175,0.0,0.0,0.0,0.0,8
10654.83,30929.67,-1675.125,-11434.365,0.0,0.0,0.0,0.0,8
11380.995,30403.62,-960.93,-10789.065,0.0,0.0,0.0,0.0,8
12158.145,29133.495,-100.305,-10027.26,0.0,0.0,0.0,0.0,8
12457.53,28320.66,339.39,-9674.865,0.0,0.0,0.0,0.0,8
13550.625,26586.36,1555.515,-8560.664999999999,0.0,0.0,0.0,0.0,8
13132.305,26485.785,1215.405,-8850.779999999999,0.0,0.0,0.0,0.0,8
11719.395,28447.155,-303.03,-10233.27,0.0,0.0,0.0,0.0,8
11359.89,29431.215,-859.005,-10712.34,0.0,0.0,0.0,0.0,8
10757.475,30590.414999999997,-1566.72,-11337.345,0.0,0.0,0.0,0.0,8
10951.2,30781.17,-1380.735,-11187.495,0.0,0.0,0.0,0.0,8
11947.275,29387.07,-321.34499999999997,-10238.4,0.0,0.0,0.0,0.0,8
12280.41,28541.7,173.83499999999998,-9814.68,0.0,0.0,0.0,0.0,8
13218.615,27090.855,1211.13,-8880.84,0.0,0.0,0.0,0.0,8
13633.29,25987.095,1686.285,-8424.539999999999,0.0,0.0,0.0,0.0,8
12063.375,27798.705,86.94,-9882.99,0.0,0.0,0.0,0.0,8
11475.81,29123.82,-694.7099999999999,-10573.335,0.0,0.0,0.0,0.0,8
11039.58,30111.21,-1287.405,-11094.885,0.0,0.0,0.0,0.0,8
10691.1,30975.345,-1658.2949999999998,-11442.555,0.0,0.0,0.0,0.0,8
11707.11,29773.98,-589.3199999999999,-10470.015,0.0,0.0,0.0,0.0,8
12170.565,28789.785,8.594999999999999,-9950.715,0.0,0.0,0.0,0.0,8
12799.71,27701.82,768.6899999999999,-9282.42,0.0,0.0,0.0,0.0,8
13852.44,25938.405,1882.08,-8260.289999999999,0.0,0.0,0.0,0.0,8
12565.215,27108.585,611.01,-9414.99,0.0,0.0,0.0,0.0,8
11523.33,28867.905,-581.355,-10487.07,0.0,0.0,0.0,0.0,8
11248.695,29748.87,-1043.82,-10879.65,0.0,0.0,0.0,0.0,8
10656.36,30903.84,-1695.645,-11472.39,0.0,0.0,0.0,0.0,8
11405.205,30198.87,-937.215,-10793.835,0.0,0.0,0.0,0.0,8
12097.395,29009.61,-122.49,-10070.01,0.0,0.0,0.0,0.0,8
12527.055,28164.78,453.51,-9573.615,0.0,0.0,0.0,0.0,8
13749.03,26245.215,1749.285,-8400.33,0.0,0.0,0.0,0.0,8
13106.97,26374.95,1137.825,-8945.505,0.0,0.0,0.0,0.0,8
11677.86,28466.685,-384.3,-10318.68,0.0,0.0,0.0,0.0,8
11417.355,29460.015,-842.04,-10699.02,0.0,0.0,0.0,0.0,8
10813.77,30605.625,-1548.27,-11332.485,0.0,0.0,0.0,0.0,8
11102.355,30582.449999999997,-1251.135,-11077.11,0.0,0.0,0.0,0.0,8
12014.955,29278.395,-273.645,-10201.455,0.0,0.0,0.0,0.0,8
12328.785,28477.754999999997,189.225,-9814.905,0.0,0.0,0.0,0.0,8
13454.055,26782.605,1441.935,-8682.615,0.0,0.0,0.0,0.0,8
13769.685,25731.675,1798.83,-8339.265,0.0,0.0,0.0,0.0,8
11994.705,27796.095,-17.055,-9994.455,0.0,0.0,0.0,0.0,8
11387.07,29183.85,-819.7199999999999,-10706.85,0.0,0.0,0.0,0.0,8
11643.345,32633.955,-1559.115,-11785.005,0.0,0.0,0.0,0.0,8
12751.2,31499.91,-377.73,-10748.88,0.0,0.0,0.0,0.0,8
14710.635,28783.754999999997,1658.835,-8912.52,0.0,0.0,0.0,0.0,8
16441.829999999998,25864.065,3462.5699999999997,-7270.155,0.0,0.0,0.0,0.0,8
16879.815,24617.52,3887.685,-6866.19,0.0,0.0,0.0,0.0,8
16117.47,25256.295,3020.355,-7613.46,0.0,0.0,0.0,0.0,8
14197.32,27944.91,1005.795,-9415.845,0.0,0.0,0.0,0.0,8
12342.195,31029.435,-895.905,-11142.27,0.0,0.0,0.0,0.0,8
11636.595,32579.73,-1609.38,-11814.975,0.0,0.0,0.0,0.0,8
12299.805,32107.41,-865.125,-11172.6,0.0,0.0,0.0,0.0,8
14090.49,29766.51,1015.92,-9489.015,0.0,0.0,0.0,0.0,8
16128.945,26660.835,3066.48,-7632.09,0.0,0.0,0.0,0.0,8
16920.72,24864.435,3885.975,-6868.17,0.0,0.0,0.0,0.0,8
16563.645,24858.045,3452.76,-7230.645,0.0,0.0,0.0,0.0,8
14874.525,27038.7,1683.585,-8802.045,0.0,0.0,0.0,0.0,8
12839.76,30252.015,-398.565,-10678.59,0.0,0.0,0.0,0.0,8
11762.955,32369.22,-1521.495,-11713.14,0.0,0.0,0.0,0.0,8
11999.97,32560.379999999997,-1249.9199999999998,-11502.63,0.0,0.0,0.0,0.0,8
13552.11,30676.365,385.245,-10047.555,0.0,0.0,0.0,0.0,8
15607.08,27645.66,2494.26,-8146.08,0.0,0.0,0.0,0.0,8
16834.995,25284.015,3774.465,-6972.03,0.0,0.0,0.0,0.0,8
16845.075,24697.08,3733.695,-6979.905,0.0,0.0,0.0,0.0,8
15540.075,26226.36,2319.66,-8223.48,0.0,0.0,0.0,0.0,8
13475.925,29331.9,186.615,-10139.94,0.0,0.0,0.0,0.0,8
12018.645,31944.735,-1304.73,-11498.67,0.0,0.0,0.0,0.0,8
11836.665,32754.69,-1482.7949999999998,-11698.335,0.0,0.0,0.0,0.0,8
13035.78,31447.395,-194.085,-10554.57,0.0,0.0,0.0,0.0,8
14987.43,28656.81,1867.995,-8696.385,0.0,0.0,0.0,0.0,8
16628.13,25857.27,3554.8199999999997,-7159.365,0.0,0.0,0.0,0.0,8
16980.03,24767.685,3868.47,-6858.495,0.0,0.0,0.0,0.0,8
16070.625,25611.795,2867.805,-7727.58,0.0,0.0,0.0,0.0,8
14098.05,28423.215,803.5649999999999,-9578.07,0.0,0.0,0.0,0.0,8
12358.035,31397.625,-1000.89,-11213.28,0.0,0.0,0.0,0.0,8
11785.86,32751.72,-1574.19,-11761.2,0.0,0.0,0.0,0.0,8
12598.92,32096.52,-722.3399999999999,-11026.53,0.0,0.0,0.0,0.0,8
14436.765,29632.86,1195.785,-9308.655,0.0,0.0,0.0,0.0,8
16305.93,26576.19,3157.9649999999997,-7519.455,0.0,0.0,0.0,0.0,8
16986.825,24938.504999999997,3867.975,-6860.88,0.0,0.0,0.0,0.0,8
16538.399999999998,25094.52,3329.1,-7313.49,0.0,0.0,0.0,0.0,8
14802.435,27416.34,1491.66,-8950.904999999999,0.0,0.0,0.0,0.0,8
12859.515,30566.835,-531.045,-10781.145,0.0,0.0,0.0,0.0,8
11888.91,32490.72,-1530.945,-11706.795,0.0,0.0,0.0,0.0,8
12209.22,32523.705,-1148.31,-11392.38,0.0,0.0,0.0,0.0,8
13823.28,30492.99,551.43,-9875.025,0.0,0.0,0.0,0.0,8
15824.07,27474.975,2618.235,-8002.304999999999,0.0,0.0,0.0,0.0,8
16937.73,25298.685,3761.415,-6959.969999999999,0.0,0.0,0.0,0.0,8
16869.78,24881.129999999997,3619.665,-7065.675,0.0,0.0,0.0,0.0,8
15438.15,26595.539999999997,2115.09,-8386.83,0.0,0.0,0.0,0.0,8
13394.07,29722.004999999997,-4.095,-10295.145,0.0,0.0,0.0,0.0,8
12089.475,32140.664999999997,-1369.3049999999998,-11541.555,0.0,0.0,0.0,0.0,8
11970.81,32813.055,-1447.155,-11646.945,0.0,0.0,0.0,0.0,8
13287.645,31345.289999999997,-61.65,-10424.205,0.0,0.0,0.0,0.0,8
15247.17,28522.305,1976.265,-8583.21,0.0,0.0,0.0,0.0,8
16735.005,25886.07,3529.665,-7169.67,0.0,0.0,0.0,0.0,8
16994.25,24941.385,3746.655,-6955.065,0.0,0.0,0.0,0.0,8
16019.46,25947.675,2665.08,-7898.31,0.0,0.0,0.0,0.0,8
14043.33,28817.145,603.855,-9739.215,0.0,0.0,0.0,0.0,8
12421.71,31639.41,-1096.38,-11288.43,0.0,0.0,0.0,0.0,8
11870.865,32872.86,-1594.35,-11758.68,0.0,0.0,0.0,0.0,8
12783.69,32062.86,-625.905,-10920.87,0.0,0.0,0.0,0.0,8
14643.855,29529.539999999997,1320.03,-9174.015,0.0,0.0,0.0,0.0,8
16440.75,26606.789999999997,3181.545,-7481.79,0.0,0.0,0.0,0.0,8
17017.2,25150.275,3755.745,-6946.065,0.0,0.0,0.0,0.0,8
16462.125,25482.375,3098.565,-7509.33,0.0,0.0,0.0,0.0,8
14681.835,27917.82,1225.395,-9178.29,0.0,0.0,0.0,0.0,8
12810.24,30980.835,-708.03,-10922.49,0.0,0.0,0.0,0.0,8
11928.825,32757.345,-1599.03,-11750.805,0.0,0.0,0.0,0.0,8
12337.56,32654.745,-1119.96,-11347.47,0.0,0.0,0.0,0.0,8
14025.105,30501.855,642.555,-9776.97,0.0,0.0,0.0,0.0,8
15981.705,27521.91,2650.095,-7965.09,0.0,0.0,0.0,0.0,8
16967.43,25530.03,3643.695,-7059.105,0.0,0.0,0.0,0.0,8
16816.095,25256.16,3393.855,-7256.295,0.0,0.0,0.0,0.0,8
15266.61,27099.9,1813.32,-8641.8,0.0,0.0,0.0,0.0,8
13282.83,30162.15,-223.515,-10471.905,0.0,0.0,0.0,0.0,8
12094.155,32393.43,-1470.15,-11618.505,0.0,0.0,0.0,0.0,8
12057.57,32943.915,-1470.78,-11652.75,0.0,0.0,0.0,0.0,8
13461.255,31289.085,12.645,-10332.45,0.0,0.0,0.0,0.0,8
15419.07,28443.6,2040.525,-8506.8,0.0,0.0,0.0,0.0,8
16773.03,25991.82,3440.8799999999997,-7231.995,0.0,0.0,0.0,0.0,8
16906.59,25213.23,3545.46,-7113.96,0.0,0.0,0.0,0.0,8
15863.535,26381.385,2381.4449999999997,-8138.295,0.0,0.0,0.0,0.0,8
13931.91,29246.805,356.445,-9952.47,0.0,0.0,0.0,0.0,8
12424.59,31865.76,-1218.33,-11382.84,0.0,0.0,0.0,0.0,8
11944.8,32995.034999999996,-1646.64,-11792.205,0.0,0.0,0.0,0.0,8
12935.385,32037.435,-577.395,-10855.845,0.0,0.0,0.0,0.0,8
14813.775,29434.905,1379.115,-9098.505,0.0,0.0,0.0,0.0,8
16497.855,26645.76,3116.6549999999997,-7522.155,0.0,0.0,0.0,0.0,8
16977.555,25375.095,3580.56,-7090.065,0.0,0.0,0.0,0.0,8
16385.309999999998,25856.55,2847.96,-7726.59,0.0,0.0,0.0,0.0,8
14531.85,28352.745,951.435,-9403.74,0.0,0.0,0.0,0.0,8
12766.725,31264.74,-870.7049999999999,-11049.705,0.0,0.0,0.0,0.0,8
11978.505,32883.345,-1663.47,-11794.905,0.0,0.0,0.0,0.0,8
12523.635,32620.68,-1066.545,-11285.325,0.0,0.0,0.0,0.0,8
14271.48,30394.17,735.2099999999999,-9682.02,0.0,0.0,0.0,0.0,8
16144.605,27480.33,2667.51,-7934.13,0.0,0.0,0.0,0.0,8
16900.335,25693.695,3520.125,-7136.775,0.0,0.0,0.0,0.0,8
16677.765,25568.64,3202.02,-7396.83,0.0,0.0,0.0,0.0,8
15167.16,27544.455,1561.905,-8857.035,0.0,0.0,0.0,0.0,8
13238.595,30580.155,-437.715,-10657.08,0.0,0.0,0.0,0.0,8
12113.955,32693.085,-1604.025,-11725.965,0.0,0.0,0.0,0.0,8
12168.54,33105.42,-1490.355,-11657.565,0.0,0.0,0.0,0.0,8
13637.295,31311.405,66.96,-10272.6,0.0,0.0,0.0,0.0,8
15601.185,28439.775,2079.495,-8464.59,0.0,0.0,0.0,0.0,8
16817.13,26153.73,3354.2999999999997,-7297.065,0.0,0.0,0.0,0.0,8
16891.155,25561.62,3387.87,-7241.849999999999,0.0,0.0,0.0,0.0,8
15718.86,26921.835,2113.605,-8356.815,0.0,0.0,0.0,0.0,8
13771.17,29849.355,90.54,-10173.285,0.0,0.0,0.0,0.0,8
12348.855,32366.475,-1390.5449999999998,-11515.905,0.0,0.0,0.0,0.0,8
12019.86,33348.69,-1704.375,-11834.91,0.0,0.0,0.0,0.0,8
13110.255,32182.785,-523.62,-10795.59,0.0,0.0,0.0,0.0,8
14984.055,29521.754999999997,1446.03,-9020.61,0.0,0.0,0.0,0.0,8
16530.255,26886.15,3056.085,-7559.865,0.0,0.0,0.0,0.0,8
16854.524999999998,25815.555,3374.145,-7249.905,0.0,0.0,0.0,0.0,8
16127.91,26465.76,2552.535,-7964.594999999999,0.0,0.0,0.0,0.0,8
14377.68,28993.32,692.145,-9629.955,0.0,0.0,0.0,0.0,8
12751.515,31767.345,-1046.07,-11208.78,0.0,0.0,0.0,0.0,8
12041.46,33237.54,-1764.405,-11884.635,0.0,0.0,0.0,0.0,8
12675.96,32780.115,-1054.08,-11268.72,0.0,0.0,0.0,0.0,8
14436.405,30413.97,796.545,-9611.145,0.0,0.0,0.0,0.0,8
16237.17,27568.89,2666.295,-7915.815,0.0,0.0,0.0,0.0,8
16939.305,25934.535,3404.385,-7233.84,0.0,0.0,0.0,0.0,8
16587.945,25956.81,2975.31,-7588.755,0.0,0.0,0.0,0.0,8
15036.435,28038.555,1306.08,-9073.215,0.0,0.0,0.0,0.0,8
13206.285,30972.78,-607.095,-10797.165,0.0,0.0,0.0,0.0,8
12179.655,32911.965,-1653.615,-11760.075,0.0,0.0,0.0,0.0,8
12354.12,33153.03,-1421.505,-11582.595,0.0,0.0,0.0,0.0,8
13893.39,31229.91,201.06,-10140.795,0.0,0.0,0.0,0.0,8
15783.435,28396.754999999997,2176.74,-8356.14,0.0,0.0,0.0,0.0,8
16835.76,26314.11,3312.585,-7315.92,0.0,0.0,0.0,0.0,8
16842.915,25796.16,3263.1299999999997,-7331.13,0.0,0.0,0.0,0.0,8
15648.615,27232.47,1898.505,-8539.065,0.0,0.0,0.0,0.0,8
13767.48,30118.185,-123.12,-10367.73,0.0,0.0,0.0,0.0,8
12433.905,32483.07,-1481.94,-11598.165,0.0,0.0,0.0,0.0,8
12155.085,33338.835,-1698.885,-11823.84,0.0,0.0,0.0,0.0,8
13323.33,32064.21,-454.095,-10725.39,0.0,0.0,0.0,0.0,8
15175.395,29431.44,1479.06,-8987.58,0.0,0.0,0.0,0.0,8
16592.805,26956.35,2956.455,-7646.715,0.0,0.0,0.0,0.0,8
16848.855,25998.48,3213.765,-7388.235,0.0,0.0,0.0,0.0,8
16103.835,26763.525,2329.4249999999997,-8161.155,0.0,0.0,0.0,0.0,8
14391.855,29300.445,483.03,-9817.695,0.0,0.0,0.0,0.0,8
12841.2,31876.92,-1078.38,-11214.585,0.0,0.0,0.0,0.0,8
12265.785,33151.185,-1653.48,-11769.12,0.0,0.0,0.0,0.0,8
12960.9,32573.385,-890.3249999999999,-11108.745,0.0,0.0,0.0,0.0,8
14604.21,30285.449999999997,863.775,-9539.37,0.0,0.0,0.0,0.0,8
16224.12,27657.675,2559.33,-8004.014999999999,0.0,0.0,0.0,0.0,8
16810.2,26249.445,3160.575,-7446.24,0.0,0.0,0.0,0.0,8
16469.684999999998,26362.575,2709.495,-7821.9,0.0,0.0,0.0,0.0,8
14942.16,28420.875,1088.82,-9257.445,0.0,0.0,0.0,0.0,8
13270.14,31172.895,-666.18,-10836.045,0.0,0.0,0.0,0.0,8
12393.945,32871.78,-1564.02,-11664.63,0.0,0.0,0.0,0.0,8
12635.055,32963.67,-1257.12,-11416.455,0.0,0.0,0.0,0.0,8
14097.15,31090.004999999997,281.25,-10054.62,0.0,0.0,0.0,0.0,8
15820.965,28449.99,2061.045,-8458.65,0.0,0.0,0.0,0.0,8
16718.085,26608.635,3006.4049999999997,-7591.634999999999,0.0,0.0,0.0,0.0,8
16681.86,26231.58,2903.58,-7655.535,0.0,0.0,0.0,0.0,8
15498.63,27711.629999999997,1607.445,-8793.72,0.0,0.0,0.0,0.0,8
13779.135,30395.16,-196.29,-10410.57,0.0,0.0,0.0,0.0,8
12680.145,32441.67,-1354.095,-11464.92,0.0,0.0,0.0,0.0,8
12519.81,33066.225,-1458.54,-11588.22,0.0,0.0,0.0,0.0,8
13655.655,31729.995,-247.32,-10520.73,0.0,0.0,0.0,0.0,8
15361.695,29248.425,1537.65,-8923.904999999999,0.0,0.0,0.0,0.0,8
16573.77,27042.615,2818.5299999999997,-7763.13,0.0,0.0,0.0,0.0,8
16749.405,26242.425,2985.345,-7576.514999999999,0.0,0.0,0.0,0.0,8
15976.08,27087.975,2083.23,-8367.795,0.0,0.0,0.0,0.0,8
14316.705,29581.605,338.085,-9930.33,0.0,0.0,0.0,0.0,8
12940.695,31991.76,-1093.365,-11219.13,0.0,0.0,0.0,0.0,8
12444.21,33096.33,-1547.775,-11649.87,0.0,0.0,0.0,0.0,8
13213.395,32334.074999999997,-672.345,-10889.28,0.0,0.0,0.0,0.0,8
14893.83,30035.385,1066.86,-9335.295,0.0,0.0,0.0,0.0,8
16421.399999999998,27543.735,2602.395,-7965.855,0.0,0.0,0.0,0.0,8
16876.71,26318.07,3055.005,-7542.945,0.0,0.0,0.0,0.0,8
16430.85,26576.28,2486.52,-8025.435,0.0,0.0,0.0,0.0,8
14906.835,28681.155,852.885,-9466.965,0.0,0.0,0.0,0.0,8
13332.06,31284.18,-764.91,-10909.8,0.0,0.0,0.0,0.0,8
12606.48,32768.28,-1516.14,-11606.715,0.0,0.0,0.0,0.0,8
12958.92,32656.14,-1102.725,-11263.5,0.0,0.0,0.0,0.0,8
14388.435,30743.55,445.68,-9879.12,0.0,0.0,0.0,0.0,8
16025.85,28204.335,2170.215,-8323.515,0.0,0.0,0.0,0.0,8
16785.225,26563.68,2964.7799999999997,-7597.215,0.0,0.0,0.0,0.0,8
16690.454999999998,26295.12,2770.92,-7740.719999999999,0.0,0.0,0.0,0.0,8
15478.425,27854.055,1449.54,-8897.039999999999,0.0,0.0,0.0,0.0,8
13834.62,30491.19,-272.295,-10437.93,0.0,0.0,0.0,0.0,8
12858.48,32361.21,-1288.665,-11370.78,0.0,0.0,0.0,0.0,8
12803.625,32823.045,-1298.835,-11418.255,0.0,0.0,0.0,0.0,8
13972.95,31383.09,-20.07,-10293.255,0.0,0.0,0.0,0.0,8
15633.135,28920.15,1745.1899999999998,-8709.93,0.0,0.0,0.0,0.0,8
16744.77,26860.545,2895.12,-7670.565,0.0,0.0,0.0,0.0,8
16882.38,26168.67,2939.805,-7610.49,0.0,0.0,0.0,0.0,8
16024.455,27132.66,1959.66,-8452.215,0.0,0.0,0.0,0.0,8
14370.435,29597.31,244.305,-9990.09,0.0,0.0,0.0,0.0,8
13127.49,31841.595,-1057.59,-11174.535,0.0,0.0,0.0,0.0,8
12771.45,32767.11,-1404.81,-11514.105,0.0,0.0,0.0,0.0,8
13612.86,31886.1,-469.26,-10698.705,0.0,0.0,0.0,0.0,8
15218.55,29618.775,1189.8,-9219.78,0.0,0.0,0.0,0.0,8
16615.575,27234.405,2675.745,-7872.525,0.0,0.0,0.0,0.0,8
16984.485,26158.23,3047.49,-7525.755,0.0,0.0,0.0,0.0,8
16503.21,26556.254999999997,2440.485,-8045.054999999999,0.0,0.0,0.0,0.0,8
14931.72,28774.845,775.2149999999999,-9529.47,0.0,0.0,0.0,0.0,8
13493.25,31281.975,-730.2149999999999,-10883.925,0.0,0.0,0.0,0.0,8
12852.81,32634.405,-1354.995,-11458.935,0.0,0.0,0.0,0.0,8
13281.435,32375.43,-869.76,-11054.385,0.0,0.0,0.0,0.0,8
14705.37,30430.53,623.16,-9732.555,0.0,0.0,0.0,0.0,8
16314.885,27926.73,2309.805,-8213.85,0.0,0.0,0.0,0.0,8
17004.059999999998,26435.52,3051.765,-7537.23,0.0,0.0,0.0,0.0,8
16862.085,26323.695,2794.995,-7741.844999999999,0.0,0.0,0.0,0.0,8
15533.82,28028.879999999997,1351.71,-9006.345,0.0,0.0,0.0,0.0,8
13856.805,30668.039999999997,-413.415,-10590.12,0.0,0.0,0.0,0.0,8
12888.9,32463.135,-1381.365,-11480.67,0.0,0.0,0.0,0.0,8
12900.33,32798.43,-1287.54,-11422.485,0.0,0.0,0.0,0.0,8
14181.03,31245.254999999997,53.28,-10241.01,0.0,0.0,0.0,0.0,8
15860.655,28795.815,1782.135,-8678.34,0.0,0.0,0.0,0.0,8
16793.73,26892.405,2784.87,-7749.81,0.0,0.0,0.0,0.0,8
16876.71,26351.37,2812.185,-7714.395,0.0,0.0,0.0,0.0,8
15930.855,27489.06,1786.41,-8619.84,0.0,0.0,0.0,0.0,8
14296.32,29991.78,80.865,-10150.605,0.0,0.0,0.0,0.0,8
13141.71,32106.24,-1172.97,-11287.26,0.0,0.0,0.0,0.0,8
12828.87,32934.555,-1465.74,-11578.68,0.0,0.0,0.0,0.0,8
13749.03,31924.215,-447.795,-10687.5,0.0,0.0,0.0,0.0,8
15334.605,29637.945,1237.95,-9180.99,0.0,0.0,0.0,0.0,8
16611.12,27414.27,2583.72,-7965.09,0.0,0.0,0.0,0.0,8
16910.46,26481.015,2861.2349999999997,-7700.67,0.0,0.0,0.0,0.0,8
16354.98,27014.445,2177.055,-8289.27,0.0,0.0,0.0,0.0,8
14847.03,29235.825,538.515,-9748.08,0.0,0.0,0.0,0.0,8
13533.615,31612.725,-927.27,-11083.725,0.0,0.0,0.0,0.0,8
12864.33,32877.585,-1498.995,-11599.065,0.0,0.0,0.0,0.0,8
13363.47,32498.595,-863.64,-11054.565,0.0,0.0,0.0,0.0,8
14829.615,30471.57,736.11,-9623.925,0.0,0.0,0.0,0.0,8
16309.395,28098.135,2296.62,-8227.17,0.0,0.0,0.0,0.0,8
16836.704999999998,26800.965,2815.065,-7758.27,0.0,0.0,0.0,0.0,8
16596.36,26822.655,2432.3399999999997,-8072.19,0.0,0.0,0.0,0.0,8
15283.485,28601.595,1018.71,-9307.395,0.0,0.0,0.0,0.0,8
13781.52,31087.574999999997,-578.925,-10746.99,0.0,0.0,0.0,0.0,8
12964.545,32696.55,-1443.915,-11539.125,0.0,0.0,0.0,0.0,8
13080.42,32919.03,-1281.375,-11425.77,0.0,0.0,0.0,0.0,8
14343.12,31263.885,98.235,-10203.39,0.0,0.0,0.0,0.0,8
15873.12,28880.414999999997,1739.88,-8737.02,0.0,0.0,0.0,0.0,8
16712.235,27193.23,2615.94,-7939.755,0.0,0.0,0.0,0.0,8
16777.035,26732.115,2593.89,-7930.844999999999,0.0,0.0,0.0,0.0,8
15771.375,27967.32,1499.58,-8874.945,0.0,0.0,0.0,0.0,8
14200.785,30434.355,-158.48999999999998,-10350.72,0.0,0.0,0.0,0.0,8
13122.63,32398.56,-1279.845,-11356.38,0.0,0.0,0.0,0.0,8
12882.51,33146.595,-1503.72,-11591.955,0.0,0.0,0.0,0.0,8
13908.915,31955.129999999997,-426.105,-10650.42,0.0,0.0,0.0,0.0,8
15522.615,29546.91,1313.55,-9086.355,0.0,0.0,0.0,0.0,8
16766.505,27332.28,2615.7149999999997,-7913.655,0.0,0.0,0.0,0.0,8
17002.89,26449.515,2834.91,-7695.45,0.0,0.0,0.0,0.0,8
16308.27,27159.795,2020.455,-8390.88,0.0,0.0,0.0,0.0,8
14729.13,29546.504999999997,321.39,-9913.905,0.0,0.0,0.0,0.0,8
13393.395,31921.245,-1113.57,-11207.745,0.0,0.0,0.0,0.0,8
12840.57,33157.619999999995,-1648.755,-11718.54,0.0,0.0,0.0,0.0,8
13452.255,32569.92,-922.545,-11093.715,0.0,0.0,0.0,0.0,8
14956.11,30320.955,706.14,-9637.02,0.0,0.0,0.0,0.0,8
16447.41,27888.48,2244.7799999999997,-8266.59,0.0,0.0,0.0,0.0,8
17025.975,26624.205,2796.165,-7776.045,0.0,0.0,0.0,0.0,8
16689.555,26784.539999999997,2371.86,-8128.755,0.0,0.0,0.0,0.0,8
15216.57,28779.66,826.875,-9490.905,0.0,0.0,0.0,0.0,8
13639.185,31342.905,-827.775,-10971.18,0.0,0.0,0.0,0.0,8
12832.875,32976.315,-1662.84,-11738.43,0.0,0.0,0.0,0.0,8
13089.015,33058.979999999996,-1321.9199999999998,-11462.22,0.0,0.0,0.0,0.0,8
14518.17,31168.71,186.885,-10126.215,0.0,0.0,0.0,0.0,8
16121.88,28665.585,1852.11,-8638.56,0.0,0.0,0.0,0.0,8
16893.585,26992.935,2678.985,-7880.085,0.0,0.0,0.0,0.0,8
16844.535,26666.055,2541.285,-7971.12,0.0,0.0,0.0,0.0,8
15678.495,28145.115,1262.34,-9088.515,0.0,0.0,0.0,0.0,8
14034.42,30725.28,-456.255,-10634.175,0.0,0.0,0.0,0.0,8
12990.51,32661.0,-1559.4299999999998,-11633.535,0.0,0.0,0.0,0.0,8
12821.4,33307.56,-1668.6899999999998,-11757.195,0.0,0.0,0.0,0.0,8
13976.235,31932.629999999997,-437.625,-10672.695,0.0,0.0,0.0,0.0,8
15621.57,29503.53,1303.65,-9106.29,0.0,0.0,0.0,0.0,8
16728.84,27470.745,2476.44,-8043.84,0.0,0.0,0.0,0.0,8
16911.09,26756.595,2612.7,-7911.45,0.0,0.0,0.0,0.0,8
16104.825,27634.815,1698.75,-8692.289999999999,0.0,0.0,0.0,0.0,8
14510.745,30024.945,1.08,-10198.35,0.0,0.0,0.0,0.0,8
13269.285,32220.36,-1319.13,-11385.99,0.0,0.0,0.0,0.0,8
12810.285,33307.604999999996,-1763.1899999999998,-11813.715,0.0,0.0,0.0,0.0,8
13625.595,32571.945,-896.76,-11064.465,0.0,0.0,0.0,0.0,8
15208.11,30294.855,795.15,-9543.51,0.0,0.0,0.0,0.0,8
16554.96,27960.795,2253.375,-8220.779999999999,0.0,0.0,0.0,0.0,8
16976.7,26827.785,2679.12,-7828.695,0.0,0.0,0.0,0.0,8
16497.945,27125.235,2146.635,-8259.48,0.0,0.0,0.0,0.0,8
15035.94,29213.82,576.54,-9651.78,0.0,0.0,0.0,0.0,8
13556.16,31695.435,-1018.845,-11085.21,0.0,0.0,0.0,0.0,8
12777.885,33219.674999999996,-1857.375,-11863.935,0.0,0.0,0.0,0.0,8
13118.445,33138.765,-1463.715,-11532.69,0.0,0.0,0.0,0.0,8
14641.38,31127.445,131.625,-10117.215,0.0,0.0,0.0,0.0,8
16242.345,28617.705,1876.5,-8533.89,0.0,0.0,0.0,0.0,8
16960.095,27039.195,2667.42,-7810.065,0.0,0.0,0.0,0.0,8
16814.25,26820.27,2419.605,-8004.915,0.0,0.0,0.0,0.0,8
15590.385,28435.59,1024.785,-9245.34,0.0,0.0,0.0,0.0,8
13976.235,31022.82,-670.005,-10763.775,0.0,0.0,0.0,0.0,8
12975.255,32879.385,-1680.255,-11682.045,0.0,0.0,0.0,0.0,8
12891.195,33406.29,-1719.9,-11752.785,0.0,0.0,0.0,0.0,8
14114.385,31854.51,-373.635,-10556.145,0.0,0.0,0.0,0.0,8
15796.53,29345.58,1406.61,-8967.24,0.0,0.0,0.0,0.0,8
16840.53,27372.375,2505.915,-7983.405,0.0,0.0,0.0,0.0,8
16980.885,26733.6,2574.81,-7903.844999999999,0.0,0.0,0.0,0.0,8
16067.43,27775.754999999997,1558.26,-8781.435,0.0,0.0,0.0,0.0,8
14402.16,30266.73,-207.81,-10351.845,0.0,0.0,0.0,0.0,8
13195.755,32411.16,-1509.165,-11517.39,0.0,0.0,0.0,0.0,8
12781.44,33405.21,-1888.83,-11890.71,0.0,0.0,0.0,0.0,8
13652.955,32486.31,-914.715,-11044.62,0.0,0.0,0.0,0.0,8
15313.05,30090.15,838.935,-9479.07,0.0,0.0,0.0,0.0,8
16668.945,27784.575,2264.085,-8194.365,0.0,0.0,0.0,0.0,8
17036.01,26752.995,2614.86,-7862.895,0.0,0.0,0.0,0.0,8
16528.23,27206.91,1966.995,-8418.105,0.0,0.0,0.0,0.0,8
14968.575,29406.735,317.61,-9888.255,0.0,0.0,0.0,0.0,8
13522.995,31819.185,-1179.495,-11235.69,0.0,0.0,0.0,0.0,8
12808.665,33237.765,-1881.135,-11887.83,0.0,0.0,0.0,0.0,8
13271.67,32990.085,-1349.955,-11440.845,0.0,0.0,0.0,0.0,8
14816.295,30871.62,277.065,-9992.52,0.0,0.0,0.0,0.0,8
16386.03,28383.345,1919.88,-8514.539999999999,0.0,0.0,0.0,0.0,8
17026.47,26941.635,2572.785,-7921.844999999999,0.0,0.0,0.0,0.0,8
16808.94,26849.61,2262.87,-8166.645,0.0,0.0,0.0,0.0,8
15462.27,28593.945,828.36,-9421.92,0.0,0.0,0.0,0.0,8
13879.215,31138.379999999997,-840.24,-10913.085,0.0,0.0,0.0,0.0,8
12953.79,32903.909999999996,-1811.835,-11799.27,0.0,0.0,0.0,0.0,8
12971.475,33290.909999999996,-1716.7949999999998,-11740.14,0.0,0.0,0.0,0.0,8
14299.965,31613.76,-306.85499999999996,-10487.52,0.0,0.0,0.0,0.0,8
15984.945,29113.605,1464.885,-8892.27,0.0,0.0,0.0,0.0,8
16927.335,27257.67,2458.5299999999997,-7986.735,0.0,0.0,0.0,0.0,8
16982.19,26721.629999999997,2455.92,-7965.81,0.0,0.0,0.0,0.0,8
15996.78,27957.78,1336.455,-8948.34,0.0,0.0,0.0,0.0,8
14368.455,30487.095,-391.95,-10495.62,0.0,0.0,0.0,0.0,8
13186.035,32576.445,-1619.415,-11596.41,0.0,0.0,0.0,0.0,8
12810.735,33487.695,-1949.85,-11931.12,0.0,0.0,0.0,0.0,8
13800.06,32379.48,-862.155,-10968.03,0.0,0.0,0.0,0.0,8
15486.66,29947.545,920.925,-9369.045,0.0,0.0,0.0,0.0,8
16783.785,27745.605,2279.88,-8145.54,0.0,0.0,0.0,0.0,8
17049.285,26801.64,2538.4049999999997,-7897.905,0.0,0.0,0.0,0.0,8
16413.524999999998,27372.87,1789.65,-8546.985,0.0,0.0,0.0,0.0,8
14838.345,29641.815,116.28,-10034.64,0.0,0.0,0.0,0.0,8
13466.97,31995.81,-1336.5,-11341.845,0.0,0.0,0.0,0.0,8
12828.15,33361.2,-1982.565,-11958.03,0.0,0.0,0.0,0.0,8
13391.91,32965.83,-1346.805,-11416.86,0.0,0.0,0.0,0.0,8
14983.74,30741.705,340.11,-9910.71,0.0,0.0,0.0,0.0,8
16494.345,28298.789999999997,1946.7,-8463.15,0.0,0.0,0.0,0.0,8
17048.97,26945.46,2515.0499999999997,-7941.24,0.0,0.0,0.0,0.0,8
16766.19,26993.475,2126.295,-8263.89,0.0,0.0,0.0,0.0,8
15384.645,28871.595,642.06,-9577.62,0.0,0.0,0.0,0.0,8
13851.765,31387.185,-995.805,-11051.46,0.0,0.0,0.0,0.0,8
12982.77,33074.145,-1916.055,-11905.74,0.0,0.0,0.0,0.0,8
13100.22,33300.45,-1719.99,-11754.72,0.0,0.0,0.0,0.0,8
14464.17,31451.445,-214.74,-10400.445,0.0,0.0,0.0,0.0,8
16137.72,28918.35,1540.08,-8824.949999999999,0.0,0.0,0.0,0.0,8
16991.55,27180.495,2434.77,-8019.855,0.0,0.0,0.0,0.0,8
16990.02,26751.195,2361.735,-8061.84,0.0,0.0,0.0,0.0,8
15911.91,28086.164999999997,1163.34,-9107.955,0.0,0.0,0.0,0.0,8
14298.03,30606.525,-551.6999999999999,-10640.43,0.0,0.0,0.0,0.0,8
13185.45,32624.46,-1716.705,-11695.365,0.0,0.0,0.0,0.0,8
12917.07,33424.47,-1925.865,-11914.605,0.0,0.0,0.0,0.0,8
14027.175,32110.785,-735.975,-10868.31,0.0,0.0,0.0,0.0,8
15717.735,29628.18,1029.285,-9290.43,0.0,0.0,0.0,0.0,8
16877.07,27524.789999999997,2279.115,-8154.09,0.0,0.0,0.0,0.0,8
17074.305,26718.254999999997,2456.235,-7968.465,0.0,0.0,0.0,0.0,8
16393.23,27451.754999999997,1648.845,-8662.904999999999,0.0,0.0,0.0,0.0,8
14810.76,29790.495,-31.23,-10158.03,0.0,0.0,0.0,0.0,8
13489.2,32104.935,-1440.9,-11431.17,0.0,0.0,0.0,0.0,8
12864.735,33416.505,-2042.955,-12001.95,0.0,0.0,0.0,0.0,8
13564.71,32814.27,-1283.13,-11353.77,0.0,0.0,0.0,0.0,8
15182.955,30506.76,406.17,-9851.49,0.0,0.0,0.0,0.0,8
16574.175,28103.58,1946.61,-8443.664999999999,0.0,0.0,0.0,0.0,8
17071.875,26866.53,2471.13,-7955.19,0.0,0.0,0.0,0.0,8
16713.72,27049.86,1994.31,-8354.699999999999,0.0,0.0,0.0,0.0,8
15258.06,29076.66,407.34,-9769.815,0.0,0.0,0.0,0.0,8
13733.325,31583.16,-1201.995,-11214.18,0.0,0.0,0.0,0.0,8
12888.54,33204.015,-2042.865,-11982.915,0.0,0.0,0.0,0.0,8
13163.175,33258.06,-1701.405,-11707.92,0.0,0.0,0.0,0.0,8
14645.16,31275.405,-135.45,-10315.395,0.0,0.0,0.0,0.0,8
16310.88,28732.004999999997,1615.005,-8740.98,0.0,0.0,0.0,0.0,8
17100.0,27059.355,2451.15,-7978.23,0.0,0.0,0.0,0.0,8
17028.09,26744.76,2276.46,-8108.19,0.0,0.0,0.0,0.0,8
15785.775,28290.96,941.58,-9279.18,0.0,0.0,0.0,0.0,8
14133.96,30897.945,-798.7049999999999,-10836.99,0.0,0.0,0.0,0.0,8
13073.175,32857.695,-1912.365,-11851.245,0.0,0.0,0.0,0.0,8
12893.535,33517.395,-2009.79,-11972.52,0.0,0.0,0.0,0.0,8
14147.91,32010.435,-675.675,-10791.09,0.0,0.0,0.0,0.0,8
15923.79,29395.305,1176.7949999999998,-9127.665,0.0,0.0,0.0,0.0,8
17097.66,27244.845,2416.86,-8002.53,0.0,0.0,0.0,0.0,8
17272.845,26460.27,2546.2799999999997,-7867.799999999999,0.0,0.0,0.0,0.0,8
16362.495,27436.455,1526.8049999999998,-8758.305,0.0,0.0,0.0,0.0,8
14638.545,29995.379999999997,-288.315,-10381.14,0.0,0.0,0.0,0.0,8
13328.64,32302.035,-1673.46,-11635.92,0.0,0.0,0.0,0.0,8
12808.44,33458.354999999996,-2148.705,-12091.995,0.0,0.0,0.0,0.0,8
13676.805,32600.43,-1209.915,-11273.22,0.0,0.0,0.0,0.0,8
15436.08,30125.16,622.845,-9632.475,0.0,0.0,0.0,0.0,8
16934.67,27668.385,2189.205,-8222.445,0.0,0.0,0.0,0.0,8
17351.415,26476.965,2616.66,-7819.2,0.0,0.0,0.0,0.0,8
16787.61,26861.4,1975.725,-8356.77,0.0,0.0,0.0,0.0,8
15200.82,29122.92,257.715,-9895.5,0.0,0.0,0.0,0.0,8
13648.455,31725.675,-1379.07,-11371.815,0.0,0.0,0.0,0.0,8
12869.82,33304.005,-2161.755,-12104.685,0.0,0.0,0.0,0.0,8
13296.195,33163.92,-1677.33,-11702.88,0.0,0.0,0.0,0.0,8
14903.775,30963.15,40.5,-10167.57,0.0,0.0,0.0,0.0,8
16632.63,28280.61,1852.02,-8528.22,0.0,0.0,0.0,0.0,8
17432.91,26614.26,2665.305,-7791.525,0.0,0.0,0.0,0.0,8
17213.399999999998,26451.495,2402.055,-7991.19,0.0,0.0,0.0,0.0,8
15799.59,28279.395,876.15,-9346.68,0.0,0.0,0.0,0.0,8
14013.72,31059.855,-1004.13,-11037.645,0.0,0.0,0.0,0.0,8
12935.07,33040.89,-2104.92,-12041.145,0.0,0.0,0.0,0.0,8
12907.035,33556.275,-2062.44,-12032.505,0.0,0.0,0.0,0.0,8
14351.31,31802.129999999997,-550.215,-10694.25,0.0,0.0,0.0,0.0,8
16227.63,29028.735,1400.535,-8935.83,0.0,0.0,0.0,0.0,8
17413.38,26831.34,2640.06,-7811.37,0.0,0.0,0.0,0.0,8
17487.36,26154.539999999997,2685.1949999999997,-7743.554999999999,0.0,0.0,0.0,0.0,8
16365.69,27429.975,1450.35,-8829.449999999999,0.0,0.0,0.0,0.0,8
14483.52,30240.405,-520.29,-10599.345,0.0,0.0,0.0,0.0,8
13114.395,32650.11,-1954.89,-11898.675,0.0,0.0,0.0,0.0,8
12678.93,33770.88,-2354.04,-12287.475,0.0,0.0,0.0,0.0,8
13796.685,32640.21,-1172.34,-11247.345,0.0,0.0,0.0,0.0,8
15673.68,29915.685,798.615,-9477.54,0.0,0.0,0.0,0.0,8
17232.704999999998,27314.325,2408.22,-8018.46,0.0,0.0,0.0,0.0,8
17598.105,26159.22,2770.02,-7666.695,0.0,0.0,0.0,0.0,8
16859.385,26777.295,1940.58,-8379.09,0.0,0.0,0.0,0.0,8
15031.755,29327.85,18.045,-10098.765,0.0,0.0,0.0,0.0,8
13426.02,32038.965,-1670.49,-11623.545,0.0,0.0,0.0,0.0,8
12679.02,33610.14,-2405.79,-12311.55,0.0,0.0,0.0,0.0,8
13305.105,33223.59,-1715.13,-11719.44,0.0,0.0,0.0,0.0,8
15100.785,30789.855,153.855,-10047.06,0.0,0.0,0.0,0.0,8
16845.075,28029.51,1985.535,-8383.815,0.0,0.0,0.0,0.0,8
17561.204999999998,26431.379999999997,2708.505,-7723.304999999999,0.0,0.0,0.0,0.0,8
17253.945,26420.445,2296.26,-8066.34,0.0,0.0,0.0,0.0,8
15650.325,28481.625,618.48,-9552.69,0.0,0.0,0.0,0.0,8
13868.955,31341.87,-1257.84,-11245.635,0.0,0.0,0.0,0.0,8
12833.235,33309.135,-2331.18,-12239.82,0.0,0.0,0.0,0.0,8
12922.605,33656.94,-2166.075,-12126.15,0.0,0.0,0.0,0.0,8
14454.585,31683.87,-515.655,-10640.655,0.0,0.0,0.0,0.0,8
16350.255,28842.12,1464.885,-8852.94,0.0,0.0,0.0,0.0,8
17465.175,26765.1,2611.395,-7815.915,0.0,0.0,0.0,0.0,8
17474.445,26227.754999999997,2551.77,-7844.13,0.0,0.0,0.0,0.0,8
16213.905,27701.685,1204.11,-9031.995,0.0,0.0,0.0,0.0,8
14323.545,30545.91,-759.015,-10795.185,0.0,0.0,0.0,0.0,8
13044.87,32858.28,-2110.14,-12030.615,0.0,0.0,0.0,0.0,8
12718.26,33844.275,-2389.68,-12315.555,0.0,0.0,0.0,0.0,8
13909.905,32526.585,-1120.23,-11196.45,0.0,0.0,0.0,0.0,8
15812.82,29760.12,862.4699999999999,-9414.54,0.0,0.0,0.0,0.0,8
17243.864999999998,27289.17,2359.935,-8055.405,0.0,0.0,0.0,0.0,8
17553.149999999998,26252.73,2648.6549999999997,-7774.38,0.0,0.0,0.0,0.0,8
16721.505,27048.15,1709.01,-8590.68,0.0,0.0,0.0,0.0,8
14902.92,29684.61,-209.97,-10309.05,0.0,0.0,0.0,0.0,8
13357.845,32294.07,-1819.17,-11765.835,0.0,0.0,0.0,0.0,8
12618.855,33777.494999999995,-2527.47,-12438.9,0.0,0.0,0.0,0.0,8
13362.795,33175.935,-1712.07,-11730.465,0.0,0.0,0.0,0.0,8
15245.46,30615.03,238.68,-9978.93,0.0,0.0,0.0,0.0,8
16952.22,27885.96,2013.345,-8368.965,0.0,0.0,0.0,0.0,8
17590.095,26401.095,2662.29,-7774.83,0.0,0.0,0.0,0.0,8
17146.035,26553.51,2138.76,-8215.38,0.0,0.0,0.0,0.0,8
15477.03,28800.27,372.015,-9790.92,0.0,0.0,0.0,0.0,8
13699.17,31653.855,-1485.0449999999998,-11467.53,0.0,0.0,0.0,0.0,8
12703.86,33558.57,-2490.885,-12394.62,0.0,0.0,0.0,0.0,8
12969.135,33721.11,-2162.385,-12127.185,0.0,0.0,0.0,0.0,8
14648.355,31541.85,-392.58,-10545.75,0.0,0.0,0.0,0.0,8
16566.21,28634.129999999997,1595.34,-8745.75,0.0,0.0,0.0,0.0,8
17513.91,26694.495,2597.4,-7831.665,0.0,0.0,0.0,0.0,8
17420.715,26318.205,2433.24,-7954.38,0.0,0.0,0.0,0.0,8
16106.49,27951.66,994.185,-9231.345,0.0,0.0,0.0,0.0,8
14197.5,30854.475,-985.455,-11008.53,0.0,0.0,0.0,0.0,8
12933.18,33131.43,-2290.77,-12196.665,0.0,0.0,0.0,0.0,8
12724.02,33976.979999999996,-2453.67,-12384.315,0.0,0.0,0.0,0.0,8
14096.52,32394.78,-1019.565,-11115.18,0.0,0.0,0.0,0.0,8
16081.695,29484.81,1032.975,-9260.505,0.0,0.0,0.0,0.0,8
17478.135,27065.115,2466.72,-7964.505,0.0,0.0,0.0,0.0,8
17609.535,26180.1,2654.2799999999997,-7756.02,0.0,0.0,0.0,0.0,8
16649.235,27200.07,1561.86,-8719.47,0.0,0.0,0.0,0.0,8
14738.085,29971.08,-446.31,-10524.645,0.0,0.0,0.0,0.0,8
13213.08,32559.435,-2023.785,-11945.97,0.0,0.0,0.0,0.0,8
12635.145,33916.905,-2583.855,-12489.345,0.0,0.0,0.0,0.0,8
13561.29,33099.84,-1584.0449999999998,-11616.165,0.0,0.0,0.0,0.0,8
15487.785,30399.12,426.96,-9807.57,0.0,0.0,0.0,0.0,8
17170.92,27644.895,2187.0,-8212.635,0.0,0.0,0.0,0.0,8
17664.434999999998,26282.97,2695.455,-7736.085,0.0,0.0,0.0,0.0,8
17116.245,26627.805,2049.48,-8285.805,0.0,0.0,0.0,0.0,8
15358.635,29035.845,184.005,-9953.1,0.0,0.0,0.0,0.0,8
13619.385,31880.385,-1653.9299999999998,-11616.345,0.0,0.0,0.0,0.0,8
12708.99,33680.295,-2563.38,-12462.615,0.0,0.0,0.0,0.0,8
13107.555,33637.14,-2070.99,-12047.265,0.0,0.0,0.0,0.0,8
14863.23,31320.675,-237.78,-10400.895,0.0,0.0,0.0,0.0,8
16794.045,28416.96,1746.1799999999998,-8603.55,0.0,0.0,0.0,0.0,8
17673.704999999998,26552.385,2680.56,-7741.44,0.0,0.0,0.0,0.0,8
17496.405,26298.045,2419.11,-7951.995,0.0,0.0,0.0,0.0,8
16037.91,28156.004999999997,852.2099999999999,-9353.745,0.0,0.0,0.0,0.0,8
14140.035,31110.48,-1131.03,-11152.17,0.0,0.0,0.0,0.0,8
12937.005,33306.57,-2379.24,-12300.03,0.0,0.0,0.0,0.0,8
12845.655,33955.92,-2424.42,-12370.905,0.0,0.0,0.0,0.0,8
14243.04,32172.795,-874.35,-10957.32,0.0,0.0,0.0,0.0,8
16226.055,29258.73,1154.115,-9126.315,0.0,0.0,0.0,0.0,8
17496.765,26965.485,2483.325,-7923.69,0.0,0.0,0.0,0.0,8
17628.524999999998,26223.435,2557.845,-7836.435,0.0,0.0,0.0,0.0,8
16525.53,27435.96,1375.335,-8869.77,0.0,0.0,0.0,0.0,8
14590.305,30288.15,-619.29,-10668.15,0.0,0.0,0.0,0.0,8
13181.355,32812.56,-2121.66,-12050.955,0.0,0.0,0.0,0.0,8
12697.92,34020.0,-2577.555,-12498.615,0.0,0.0,0.0,0.0,8
13761.045,32975.145,-1435.23,-11486.07,0.0,0.0,0.0,0.0,8
15759.18,30184.74,625.4549999999999,-9625.545,0.0,0.0,0.0,0.0,8
17377.11,27478.845,2324.43,-8079.705,0.0,0.0,0.0,0.0,8
17721.585,26273.34,2684.61,-7746.75,0.0,0.0,0.0,0.0,8
17038.53,26796.33,1919.385,-8403.255,0.0,0.0,0.0,0.0,8
15250.23,29315.25,27.765,-10097.595,0.0,0.0,0.0,0.0,8
13566.285,32113.395,-1752.705,-11709.9,0.0,0.0,0.0,0.0,8
12702.915,33841.799999999996,-2609.595,-12507.75,0.0,0.0,0.0,0.0,8
13260.285,33596.369999999995,-1990.08,-11983.995,0.0,0.0,0.0,0.0,8
15107.67,31114.53,-56.655,-10250.325,0.0,0.0,0.0,0.0,8
16975.305,28198.89,1893.105,-8479.98,0.0,0.0,0.0,0.0,8
17772.885,26433.225,2727.18,-7712.594999999999,0.0,0.0,0.0,0.0,8
17549.91,26279.055,2395.2149999999997,-7990.02,0.0,0.0,0.0,0.0,8
15953.535,28325.7,692.91,-9506.7,0.0,0.0,0.0,0.0,8
13994.955,31337.64,-1302.03,-11294.055,0.0,0.0,0.0,0.0,8
12852.945,33486.075,-2485.62,-12384.405,0.0,0.0,0.0,0.0,8
12906.09,33982.11,-2387.97,-12334.59,0.0,0.0,0.0,0.0,8
14511.33,32036.715,-724.86,-10853.28,0.0,0.0,0.0,0.0,8
16508.385,29041.605,1369.395,-8951.4,0.0,0.0,0.0,0.0,8
17778.285,26735.22,2675.0699999999997,-7761.42,0.0,0.0,0.0,0.0,8
17842.545,26054.055,2688.75,-7724.924999999999,0.0,0.0,0.0,0.0,8
16581.555,27438.705,1354.905,-8892.539999999999,0.0,0.0,0.0,0.0,8
14594.355,30404.789999999997,-728.235,-10768.365,0.0,0.0,0.0,0.0,8
13128.21,32959.799999999996,-2244.42,-12151.125,0.0,0.0,0.0,0.0,8
12714.12,34106.67,-2622.825,-12531.96,0.0,0.0,0.0,0.0,8
13896.54,32879.025,-1364.8049999999998,-11421.045,0.0,0.0,0.0,0.0,8
15949.17,29999.835,735.5699999999999,-9536.22,0.0,0.0,0.0,0.0,8
17573.76,27287.055,2435.76,-7984.304999999999,0.0,0.0,0.0,0.0,8
17961.614999999998,26089.83,2828.0699999999997,-7604.37,0.0,0.0,0.0,0.0,8
17150.895,26774.055,1939.05,-8367.975,0.0,0.0,0.0,0.0,8
15226.11,29478.735,-78.92999999999999,-10177.29,0.0,0.0,0.0,0.0,8
13512.96,32356.035,-1880.82,-11818.665,0.0,0.0,0.0,0.0,8
12676.815,34017.615,-2677.9049999999997,-12561.93,0.0,0.0,0.0,0.0,8
13349.52,33590.97,-1936.35,-11925.72,0.0,0.0,0.0,0.0,8
15271.335,30985.83,40.14,-10148.49,0.0,0.0,0.0,0.0,8
17190.72,27992.879999999997,2039.4,-8328.51,0.0,0.0,0.0,0.0,8
18020.43,26237.43,2867.4449999999997,-7574.715,0.0,0.0,0.0,0.0,8
17709.075,26207.775,2463.66,-7907.759999999999,0.0,0.0,0.0,0.0,8
15981.345,28417.77,662.5799999999999,-9506.295,0.0,0.0,0.0,0.0,8
14005.395,31518.135,-1412.685,-11396.205,0.0,0.0,0.0,0.0,8
12867.66,33675.479999999996,-2592.9449999999997,-12499.965,0.0,0.0,0.0,0.0,8
12976.65,34028.055,-2335.3199999999997,-12296.52,0.0,0.0,0.0,0.0,8
14651.82,31899.15,-563.49,-10709.64,0.0,0.0,0.0,0.0,8
16753.23,28817.28,1568.07,-8777.654999999999,0.0,0.0,0.0,0.0,8
17946.405,26565.21,2796.795,-7654.275,0.0,0.0,0.0,0.0,8
17988.975,25960.23,2759.85,-7665.165,0.0,0.0,0.0,0.0,8
16572.105,27522.81,1286.28,-8966.295,0.0,0.0,0.0,0.0,8
14524.335,30598.47,-838.935,-10882.44,0.0,0.0,0.0,0.0,8
13098.645,33180.165,-2342.205,-12262.77,0.0,0.0,0.0,0.0,8
12741.39,34222.455,-2642.94,-12571.515,0.0,0.0,0.0,0.0,8
14016.06,32798.07,-1275.435,-11353.365,0.0,0.0,0.0,0.0,8
16123.455,29792.475,900.9,-9381.87,0.0,0.0,0.0,0.0,8
17728.605,27073.53,2571.66,-7855.155,0.0,0.0,0.0,0.0,8
18084.96,25954.785,2906.46,-7530.03,0.0,0.0,0.0,0.0,8
17201.88,26787.87,1924.02,-8389.125,0.0,0.0,0.0,0.0,8
15244.875,29571.03,-115.965,-10227.24,0.0,0.0,0.0,0.0,8
13522.635,32462.235,-1923.885,-11878.965,0.0,0.0,0.0,0.0,8
12726.36,34063.92,-2686.725,-12595.185,0.0,0.0,0.0,0.0,8
13555.62,33476.445,-1828.035,-11850.615,0.0,0.0,0.0,0.0,8
15498.27,30796.47,201.735,-10015.605,0.0,0.0,0.0,0.0,8
