CH1,CH2,CH3,CH4,CH5,CH6,CH7,CH8,Target
-99771.03,-54187.2,-99838.98,-768.6,0.0,0.0,0.0,0.0,3
-99785.97,-54187.92,-99828.855,-753.3,0.0,0.0,0.0,0.0,3
-99799.335,-54188.415,-99837.72,-760.995,0.0,0.0,0.0,0.0,3
-99798.885,-54189.045,-99851.49,-773.64,0.0,0.0,0.0,0.0,3
-99792.765,-54187.2,-99858.24,-780.57,0.0,0.0,0.0,0.0,3
-99788.49,-54184.14,-99850.365,-778.005,0.0,0.0,0.0,0.0,3
-99796.545,-54179.37,-99843.3,-770.04,0.0,0.0,0.0,0.0,3
-99810.765,-54178.875,-99841.5,-750.195,0.0,0.0,0.0,0.0,3
-99788.58,-54177.57,-99854.865,-771.03,0.0,0.0,0.0,0.0,3
-99765.72,-54177.795,-99857.025,-796.77,0.0,0.0,0.0,0.0,3
-99768.33,-54176.895,-99841.545,-780.57,0.0,0.0,0.0,0.0,3
-99775.485,-54178.2,-99846.27,-777.915,0.0,0.0,0.0,0.0,3
-99785.115,-54179.91,-99850.905,-778.455,0.0,0.0,0.0,0.0,3
-99823.005,-54181.62,-99867.555,-775.305,0.0,0.0,0.0,0.0,3
-99852.75,-54182.7,-99886.545,-779.22,0.0,0.0,0.0,0.0,3
-99878.535,-54179.055,-99914.67,-789.525,0.0,0.0,0.0,0.0,3
-99845.415,-54173.565,-99875.655,-784.395,0.0,0.0,0.0,0.0,3
-99780.39,-54173.34,-99837.27,-775.845,0.0,0.0,0.0,0.0,3
-99742.815,-54173.79,-99828.27,-772.56,0.0,0.0,0.0,0.0,3
-99711.99,-54174.375,-99811.755,-770.13,0.0,0.0,0.0,0.0,3
-99751.815,-54176.22,-99840.24,-772.605,0.0,0.0,0.0,0.0,3
-99790.785,-54178.335,-99853.065,-769.905,0.0,0.0,0.0,0.0,3
-99832.815,-54179.865,-99870.345,-771.57,0.0,0.0,0.0,0.0,3
-99869.715,-54183.375,-99879.57,-766.26,0.0,0.0,0.0,0.0,3
-99865.53,-54186.39,-99877.59,-769.77,0.0,0.0,0.0,0.0,3
-99821.43,-54179.46,-99858.69,-771.03,0.0,0.0,0.0,0.0,3
-99750.33,-54171.945,-99815.13,-761.67,0.0,0.0,0.0,0.0,3
-99703.71,-54175.14,-99818.64,-772.155,0.0,0.0,0.0,0.0,3
-99724.95,-54180.855,-99837.45,-777.465,0.0,0.0,0.0,0.0,3
-99755.73,-54186.75,-99840.285,-768.87,0.0,0.0,0.0,0.0,3
-99771.795,-54188.955,-99846.945,-767.925,0.0,0.0,0.0,0.0,3
-99775.755,-54190.395,-99850.815,-771.84,0.0,0.0,0.0,0.0,3
-99779.445,-54190.035,-99849.105,-771.165,0.0,0.0,0.0,0.0,3
-99799.695,-54191.52,-99860.13,-772.83,0.0,0.0,0.0,0.0,3
-99818.82,-54195.48,-99856.08,-762.75,0.0,0.0,0.0,0.0,3
-99837.72,-54194.76,-99854.46,-759.375,0.0,0.0,0.0,0.0,3
-99842.895,-54195.39,-99865.62,-766.89,0.0,0.0,0.0,0.0,3
-99809.91,-54195.66,-99860.4,-767.7,0.0,0.0,0.0,0.0,3
-99759.87,-54197.415,-99841.14,-756.54,0.0,0.0,0.0,0.0,3
-99754.695,-54201.87,-99818.055,-724.095,0.0,0.0,0.0,0.0,3
-99756.0,-54203.355,-99855.405,-780.435,0.0,0.0,0.0,0.0,3
-99741.645,-54204.93,-99838.845,-784.845,0.0,0.0,0.0,0.0,3
-99760.32,-54208.215,-99853.83,-787.14,0.0,0.0,0.0,0.0,3
-99771.3,-54212.31,-99859.455,-782.325,0.0,0.0,0.0,0.0,3
-99780.255,-54214.425,-99858.87,-775.665,0.0,0.0,0.0,0.0,3
-99797.535,-54209.16,-99869.265,-776.34,0.0,0.0,0.0,0.0,3
-99813.33,-54207.315,-99873.045,-775.665,0.0,0.0,0.0,0.0,3
-99819.09,-54208.89,-99871.515,-773.685,0.0,0.0,0.0,0.0,3
-99814.05,-54207.765,-99870.75,-771.03,0.0,0.0,0.0,0.0,3
-99809.82,-54207.045,-99858.105,-761.13,0.0,0.0,0.0,0.0,3
-99784.62,-54206.91,-99830.475,-745.425,0.0,0.0,0.0,0.0,3
-99757.53,-54208.08,-99829.8,-756.63,0.0,0.0,0.0,0.0,3
-99773.415,-54210.42,-99851.895,-776.025,0.0,0.0,0.0,0.0,3
-99785.115,-54212.985,-99842.67,-764.64,0.0,0.0,0.0,0.0,3
-99770.355,-54209.43,-99830.34,-750.15,0.0,0.0,0.0,0.0,3
-99778.365,-54201.69,-99841.23,-747.09,0.0,0.0,0.0,0.0,3
-99777.465,-54198.54,-99851.49,-763.785,0.0,0.0,0.0,0.0,3
-99776.52,-54201.735,-99862.74,-783.315,0.0,0.0,0.0,0.0,3
-99778.185,-54205.515,-99850.995,-767.88,0.0,0.0,0.0,0.0,3
-99782.775,-54208.53,-99844.02,-758.655,0.0,0.0,0.0,0.0,3
-99782.73,-54209.745,-99848.295,-760.905,0.0,0.0,0.0,0.0,3
-99785.34,-54211.275,-99843.93,-752.13,0.0,0.0,0.0,0.0,3
-99794.205,-54212.49,-99844.155,-742.14,0.0,0.0,0.0,0.0,3
-99803.565,-54215.775,-99871.605,-774.855,0.0,0.0,0.0,0.0,3
-99787.725,-54218.43,-99864.045,-772.965,0.0,0.0,0.0,0.0,3
-99760.815,-54208.89,-99833.04,-753.84,0.0,0.0,0.0,0.0,3
-99778.635,-54205.065,-99845.235,-760.14,0.0,0.0,0.0,0.0,3
-99787.545,-54207.09,-99841.455,-750.915,0.0,0.0,0.0,0.0,3
-99787.77,-54210.285,-99855.495,-764.91,0.0,0.0,0.0,0.0,3
-99773.19,-54219.105,-99854.82,-768.06,0.0,0.0,0.0,0.0,3
-99789.705,-54222.93,-99859.41,-769.455,0.0,0.0,0.0,0.0,3
-99799.38,-54224.73,-99855.765,-763.02,0.0,0.0,0.0,0.0,3
-99793.665,-54223.875,-99855.72,-760.905,0.0,0.0,0.0,0.0,3
-99785.97,-54225.63,-99849.555,-756.18,0.0,0.0,0.0,0.0,3
-99784.71,-54228.555,-99850.68,-759.87,0.0,0.0,0.0,0.0,3
-99780.975,-54224.415,-99853.245,-763.02,0.0,0.0,0.0,0.0,3
-99784.035,-54221.85,-99853.02,-756.225,0.0,0.0,0.0,0.0,3
-99779.445,-54221.94,-99846.99,-747.675,0.0,0.0,0.0,0.0,3
-99780.93,-54222.165,-99854.37,-761.4,0.0,0.0,0.0,0.0,3
-99792.54,-54223.245,-99853.605,-754.74,0.0,0.0,0.0,0.0,3
-99796.455,-54224.055,-99863.325,-764.235,0.0,0.0,0.0,0.0,3
-99782.82,-54222.255,-99853.245,-754.92,0.0,0.0,0.0,0.0,3
-99778.95,-54221.355,-99854.19,-762.03,0.0,0.0,0.0,0.0,3
-99783.18,-54222.345,-99845.595,-754.74,0.0,0.0,0.0,0.0,3
-99791.28,-54224.775,-99858.465,-760.05,0.0,0.0,0.0,0.0,3
-99791.37,-54221.76,-99864.09,-761.49,0.0,0.0,0.0,0.0,3
-99807.075,-54221.985,-99868.725,-759.645,0.0,0.0,0.0,0.0,3
-99801.495,-54227.295,-99861.39,-756.405,0.0,0.0,0.0,0.0,3
-99774.72,-54227.25,-99849.42,-753.66,0.0,0.0,0.0,0.0,3
-99772.875,-54227.655,-99852.795,-756.315,0.0,0.0,0.0,0.0,3
-99794.43,-54227.7,-99858.78,-755.235,0.0,0.0,0.0,0.0,3
-99786.78,-54228.78,-99854.19,-752.4,0.0,0.0,0.0,0.0,3
-99783.405,-54228.42,-99845.91,-746.865,0.0,0.0,0.0,0.0,3
-99787.41,-54230.085,-99846.54,-747.945,0.0,0.0,0.0,0.0,3
-99788.805,-54230.67,-99845.73,-750.42,0.0,0.0,0.0,0.0,3
-99788.895,-54223.2,-99854.595,-760.995,0.0,0.0,0.0,0.0,3
-99766.215,-54215.415,-99849.555,-759.195,0.0,0.0,0.0,0.0,3
-99778.77,-54215.685,-99861.57,-755.1,0.0,0.0,0.0,0.0,3
-99791.145,-54216.135,-99863.865,-756.27,0.0,0.0,0.0,0.0,3
-99775.98,-54216.9,-99847.44,-743.805,0.0,0.0,0.0,0.0,3
-99778.32,-54217.89,-99862.515,-760.005,0.0,0.0,0.0,0.0,3
-99788.22,-54219.015,-99860.22,-754.335,0.0,0.0,0.0,0.0,3
-99782.19,-54220.905,-99857.34,-751.545,0.0,0.0,0.0,0.0,3
-99784.17,-54224.505,-99856.53,-751.995,0.0,0.0,0.0,0.0,3
-99786.87,-54226.17,-99859.14,-755.19,0.0,0.0,0.0,0.0,3
-99785.835,-54228.015,-99860.94,-753.57,0.0,0.0,0.0,0.0,3
-99784.395,-54226.08,-99862.695,-758.205,0.0,0.0,0.0,0.0,3
-99785.07,-54225.36,-99863.145,-757.665,0.0,0.0,0.0,0.0,3
-99784.44,-54226.53,-99867.555,-761.58,0.0,0.0,0.0,0.0,3
-99789.03,-54228.6,-99862.875,-755.73,0.0,0.0,0.0,0.0,3
-99794.745,-54231.075,-99864.27,-755.64,0.0,0.0,0.0,0.0,3
-99791.37,-54231.93,-99855.855,-745.155,0.0,0.0,0.0,0.0,3
-99784.755,-54229.59,-99855.9,-748.035,0.0,0.0,0.0,0.0,3
-99774.315,-54229.095,-99860.715,-760.05,0.0,0.0,0.0,0.0,3
-99774.99,-54228.42,-99836.505,-733.23,0.0,0.0,0.0,0.0,3
-99784.17,-54226.935,-99870.48,-765.81,0.0,0.0,0.0,0.0,3
-99786.24,-54221.805,-99884.79,-775.755,0.0,0.0,0.0,0.0,3
-99788.58,-54220.635,-99871.785,-760.635,0.0,0.0,0.0,0.0,3
-99787.05,-54222.39,-99858.24,-750.42,0.0,0.0,0.0,0.0,3
-99795.105,-54226.89,-99863.685,-750.555,0.0,0.0,0.0,0.0,3
-99798.525,-54224.55,-99865.755,-752.94,0.0,0.0,0.0,0.0,3
-99798.12,-54223.38,-99870.705,-758.295,0.0,0.0,0.0,0.0,3
-99796.275,-54225.405,-99858.33,-748.08,0.0,0.0,0.0,0.0,3
-99773.595,-54226.845,-99862.065,-756.945,0.0,0.0,0.0,0.0,3
-99768.78,-54228.6,-99863.415,-760.545,0.0,0.0,0.0,0.0,3
-99787.23,-54234.765,-99871.155,-763.02,0.0,0.0,0.0,0.0,3
-99784.53,-54230.895,-99870.075,-762.615,0.0,0.0,0.0,0.0,3
-99790.83,-54228.87,-99870.48,-760.545,0.0,0.0,0.0,0.0,3
-99793.62,-54229.14,-99870.255,-758.43,0.0,0.0,0.0,0.0,3
-99788.535,-54229.995,-99865.395,-750.915,0.0,0.0,0.0,0.0,3
-99788.67,-54232.29,-99872.91,-754.83,0.0,0.0,0.0,0.0,3
-99799.02,-54234.72,-99895.23,-767.52,0.0,0.0,0.0,0.0,3
-99795.24,-54233.595,-99883.44,-764.73,0.0,0.0,0.0,0.0,3
-99797.58,-54237.15,-99872.865,-761.895,0.0,0.0,0.0,0.0,3
-99794.205,-54237.915,-99861.39,-751.815,0.0,0.0,0.0,0.0,3
-99781.38,-54232.92,-99847.98,-740.97,0.0,0.0,0.0,0.0,3
-99780.795,-54229.905,-99858.33,-748.665,0.0,0.0,0.0,0.0,3
-99795.105,-54233.415,-99873.27,-759.915,0.0,0.0,0.0,0.0,3
-99793.485,-54236.115,-99867.87,-756.585,0.0,0.0,0.0,0.0,3
-99790.65,-54238.905,-99873.27,-761.805,0.0,0.0,0.0,0.0,3
-99788.94,-54239.895,-99877.23,-762.615,0.0,0.0,0.0,0.0,3
-99789.075,-54241.38,-99872.145,-756.63,0.0,0.0,0.0,0.0,3
-99791.865,-54244.08,-99870.615,-752.445,0.0,0.0,0.0,0.0,3
-99796.815,-54247.455,-99880.515,-761.76,0.0,0.0,0.0,0.0,3
-99797.445,-54250.83,-99871.605,-750.915,0.0,0.0,0.0,0.0,3
-99792.27,-54259.92,-99865.44,-747.63,0.0,0.0,0.0,0.0,3
-99784.44,-54264.465,-99866.205,-751.86,0.0,0.0,0.0,0.0,3
-99790.2,-54266.67,-99868.68,-757.26,0.0,0.0,0.0,0.0,3
-99809.01,-54269.145,-99894.195,-773.91,0.0,0.0,0.0,0.0,3
-99799.155,-54271.845,-99889.155,-768.195,0.0,0.0,0.0,0.0,3
-99793.665,-54273.015,-99880.92,-765.225,0.0,0.0,0.0,0.0,3
-99790.29,-54275.22,-99875.655,-760.5,0.0,0.0,0.0,0.0,3
-99783.765,-54276.255,-99875.835,-763.2,0.0,0.0,0.0,0.0,3
-99792.54,-54279.27,-99879.75,-763.785,0.0,0.0,0.0,0.0,3
-99792.54,-54279.765,-99880.245,-763.38,0.0,0.0,0.0,0.0,3
-99790.155,-54273.915,-99870.84,-752.805,0.0,0.0,0.0,0.0,3
-99786.51,-54271.755,-99872.505,-756.99,0.0,0.0,0.0,0.0,3
-99787.275,-54274.05,-99876.645,-758.835,0.0,0.0,0.0,0.0,3
-99792.63,-54274.905,-99876.33,-756.945,0.0,0.0,0.0,0.0,3
-99788.13,-54279.045,-99880.2,-761.13,0.0,0.0,0.0,0.0,3
-99804.42,-54287.415,-99889.29,-767.655,0.0,0.0,0.0,0.0,3
-99805.455,-54292.995,-99887.22,-763.605,0.0,0.0,0.0,0.0,3
-99794.025,-54292.365,-99886.23,-767.07,0.0,0.0,0.0,0.0,3
-99803.7,-54294.255,-99891.405,-767.115,0.0,0.0,0.0,0.0,3
-99805.14,-54294.795,-99895.77,-770.985,0.0,0.0,0.0,0.0,3
-99797.31,-54289.305,-99889.74,-764.685,0.0,0.0,0.0,0.0,3
-99782.415,-54285.615,-99878.805,-761.67,0.0,0.0,0.0,0.0,3
-99786.915,-54288.405,-99873.225,-757.215,0.0,0.0,0.0,0.0,3
-99795.465,-54289.62,-99875.43,-755.1,0.0,0.0,0.0,0.0,3
-99791.73,-54290.97,-99868.5,-746.595,0.0,0.0,0.0,0.0,3
-99789.21,-54291.195,-99871.47,-748.89,0.0,0.0,0.0,0.0,3
-99795.6,-54293.04,-99899.37,-778.455,0.0,0.0,0.0,0.0,3
-99797.85,-54294.57,-99888.66,-764.865,0.0,0.0,0.0,0.0,3
-99808.02,-54296.1,-99895.68,-767.655,0.0,0.0,0.0,0.0,3
-99804.915,-54293.265,-99886.815,-759.24,0.0,0.0,0.0,0.0,3
-99792.225,-54285.705,-99878.13,-755.415,0.0,0.0,0.0,0.0,3
-99786.735,-54282.96,-99878.805,-757.44,0.0,0.0,0.0,0.0,3
-99788.76,-54283.815,-99878.355,-753.84,0.0,0.0,0.0,0.0,3
-99796.005,-54283.5,-99877.995,-748.8,0.0,0.0,0.0,0.0,3
-99799.92,-54285.075,-99880.065,-745.965,0.0,0.0,0.0,0.0,3
-99798.705,-54286.965,-99879.705,-750.6,0.0,0.0,0.0,0.0,3
-99790.65,-54289.215,-99871.56,-750.33,0.0,0.0,0.0,0.0,3
-99787.815,-54288.36,-99897.975,-778.905,0.0,0.0,0.0,0.0,3
-99791.91,-54289.845,-99897.525,-772.965,0.0,0.0,0.0,0.0,3
-99790.695,-54290.97,-99889.38,-768.195,0.0,0.0,0.0,0.0,3
-99794.115,-54293.265,-99886.14,-760.59,0.0,0.0,0.0,0.0,3
-99793.665,-54293.085,-99882.765,-753.795,0.0,0.0,0.0,0.0,3
-99790.92,-54292.545,-99888.795,-763.29,0.0,0.0,0.0,0.0,3
-99792.99,-54292.68,-99899.64,-775.35,0.0,0.0,0.0,0.0,3
-99795.465,-54294.795,-99894.6,-768.15,0.0,0.0,0.0,0.0,3
-99797.085,-54292.545,-99890.505,-763.29,0.0,0.0,0.0,0.0,3
-99794.52,-54292.185,-99891.0,-762.975,0.0,0.0,0.0,0.0,3
-99792.99,-54294.93,-99891.99,-762.21,0.0,0.0,0.0,0.0,3
-99793.665,-54296.73,-99889.245,-758.34,0.0,0.0,0.0,0.0,3
-99793.845,-54293.76,-99888.03,-756.225,0.0,0.0,0.0,0.0,3
-99794.205,-54285.03,-99894.33,-764.235,0.0,0.0,0.0,0.0,3
-99795.015,-54276.615,-99894.78,-763.515,0.0,0.0,0.0,0.0,3
-99795.42,-54274.635,-99893.88,-761.265,0.0,0.0,0.0,0.0,3
-99802.08,-54272.295,-99893.025,-760.185,0.0,0.0,0.0,0.0,3
-99795.78,-54271.89,-99890.01,-759.195,0.0,0.0,0.0,0.0,3
-99788.13,-54272.295,-99887.625,-756.045,0.0,0.0,0.0,0.0,3
-99793.755,-54275.265,-99898.875,-765.54,0.0,0.0,0.0,0.0,3
-99793.62,-54274.23,-99894.42,-763.56,0.0,0.0,0.0,0.0,3
-99791.865,-54273.15,-99893.97,-764.775,0.0,0.0,0.0,0.0,3
-99788.715,-54271.53,-99894.42,-764.325,0.0,0.0,0.0,0.0,3
-99792.225,-54263.79,-99893.115,-762.525,0.0,0.0,0.0,0.0,3
-99795.105,-54257.22,-99892.98,-760.815,0.0,0.0,0.0,0.0,3
-99788.535,-54257.085,-99893.655,-765.045,0.0,0.0,0.0,0.0,3
-99789.39,-54258.39,-99900.09,-771.885,0.0,0.0,0.0,0.0,3
-99791.64,-54260.505,-99899.19,-769.365,0.0,0.0,0.0,0.0,3
-99791.19,-54259.965,-99887.175,-753.84,0.0,0.0,0.0,0.0,3
-99792.405,-54260.19,-99892.89,-761.22,0.0,0.0,0.0,0.0,3
-99789.345,-54260.055,-99889.605,-758.43,0.0,0.0,0.0,0.0,3
-99787.725,-54261.765,-99880.065,-746.145,0.0,0.0,0.0,0.0,3
-99790.02,-54259.695,-99878.49,-743.175,0.0,0.0,0.0,0.0,3
-99787.5,-54255.42,-99878.805,-745.515,0.0,0.0,0.0,0.0,3
-99792.63,-54252.945,-99900.945,-772.965,0.0,0.0,0.0,0.0,3
-99797.13,-54253.26,-99904.005,-772.38,0.0,0.0,0.0,0.0,3
-99788.355,-54249.84,-99889.02,-758.295,0.0,0.0,0.0,0.0,3
-99793.305,-54249.165,-99883.8,-751.41,0.0,0.0,0.0,0.0,3
-99793.53,-54253.305,-99894.915,-759.195,0.0,0.0,0.0,0.0,3
-99792.54,-54255.105,-99902.205,-766.845,0.0,0.0,0.0,0.0,3
-99799.065,-54254.34,-99901.08,-763.605,0.0,0.0,0.0,0.0,3
-99796.725,-54253.485,-99899.46,-760.095,0.0,0.0,0.0,0.0,3
-99787.635,-54251.595,-99882.585,-746.055,0.0,0.0,0.0,0.0,3
-99790.29,-54242.595,-99909.315,-779.535,0.0,0.0,0.0,0.0,3
-99795.87,-54236.565,-99909.18,-775.845,0.0,0.0,0.0,0.0,3
-99792.99,-54236.79,-99900.855,-768.555,0.0,0.0,0.0,0.0,3
-99792.945,-54237.015,-99894.735,-763.56,0.0,0.0,0.0,0.0,3
-99794.07,-54238.77,-99892.17,-757.8,0.0,0.0,0.0,0.0,3
-99796.14,-54238.095,-99897.57,-758.115,0.0,0.0,0.0,0.0,3
-99789.84,-54239.67,-99904.455,-771.975,0.0,0.0,0.0,0.0,3
-99789.57,-54239.67,-99899.1,-764.82,0.0,0.0,0.0,0.0,3
-99794.115,-54240.75,-99899.865,-763.29,0.0,0.0,0.0,0.0,3
-99785.79,-54239.535,-99892.98,-757.44,0.0,0.0,0.0,0.0,3
-99788.715,-54233.82,-99891.81,-755.55,0.0,0.0,0.0,0.0,3
-99794.88,-54234.045,-99892.395,-752.67,0.0,0.0,0.0,0.0,3
-99793.8,-54238.59,-99896.265,-757.305,0.0,0.0,0.0,0.0,3
-99796.275,-54238.14,-99897.165,-757.845,0.0,0.0,0.0,0.0,3
-99790.2,-54239.04,-99904.725,-772.83,0.0,0.0,0.0,0.0,3
-99789.57,-54239.31,-99904.32,-770.445,0.0,0.0,0.0,0.0,3
-99797.535,-54240.48,-99898.515,-759.15,0.0,0.0,0.0,0.0,3
-99786.825,-54238.365,-99874.62,-732.78,0.0,0.0,0.0,0.0,3
-99779.58,-54239.175,-99883.755,-747.63,0.0,0.0,0.0,0.0,3
-99790.965,-54239.445,-99893.655,-756.09,0.0,0.0,0.0,0.0,3
-99779.04,-54234.27,-99884.34,-744.57,0.0,0.0,0.0,0.0,3
-99791.865,-54234.18,-99906.885,-768.555,0.0,0.0,0.0,0.0,3
-99800.865,-54237.69,-99921.78,-785.52,0.0,0.0,0.0,0.0,3
-99795.555,-54234.27,-99902.07,-764.82,0.0,0.0,0.0,0.0,3
-99792.18,-54232.605,-99907.74,-770.31,0.0,0.0,0.0,0.0,3
-99792.765,-54229.5,-99899.145,-758.475,0.0,0.0,0.0,0.0,3
-99791.28,-54229.86,-99904.725,-766.08,0.0,0.0,0.0,0.0,3
-99798.57,-54230.265,-99909.675,-768.69,0.0,0.0,0.0,0.0,3
-99795.645,-54232.02,-99903.69,-763.92,0.0,0.0,0.0,0.0,3
-99792.09,-54232.335,-99880.29,-733.995,0.0,0.0,0.0,0.0,3
-99793.665,-54228.15,-99908.055,-768.69,0.0,0.0,0.0,0.0,3
-99798.03,-54229.095,-99912.69,-771.57,0.0,0.0,0.0,0.0,3
-99797.355,-54232.245,-99903.78,-758.745,0.0,0.0,0.0,0.0,3
-99800.1,-54232.065,-99911.835,-767.295,0.0,0.0,0.0,0.0,3
-99790.02,-54232.38,-99902.97,-763.605,0.0,0.0,0.0,0.0,3
-99786.915,-54231.795,-99904.725,-765.54,0.0,0.0,0.0,0.0,3
-99785.88,-54232.74,-99903.825,-762.3,0.0,0.0,0.0,0.0,3
-99786.24,-54233.19,-99902.43,-762.03,0.0,0.0,0.0,0.0,3
-99791.145,-54235.62,-99906.57,-765.81,0.0,0.0,0.0,0.0,3
-99796.14,-54232.83,-99908.55,-766.17,0.0,0.0,0.0,0.0,3
-99794.43,-54226.44,-99907.065,-764.1,0.0,0.0,0.0,0.0,3
-99785.61,-54222.075,-99900.99,-761.67,0.0,0.0,0.0,0.0,3
-99791.01,-54222.435,-99903.645,-759.96,0.0,0.0,0.0,0.0,3
-99793.08,-54224.055,-99907.155,-761.76,0.0,0.0,0.0,0.0,3
-99788.4,-54228.825,-99906.435,-762.975,0.0,0.0,0.0,0.0,3
-99795.465,-54230.04,-99910.845,-762.93,0.0,0.0,0.0,0.0,3
-99790.155,-54232.02,-99910.89,-764.64,0.0,0.0,0.0,0.0,3
-99781.29,-54232.83,-99904.725,-764.28,0.0,0.0,0.0,0.0,3
-99787.905,-54233.865,-99901.395,-759.06,0.0,0.0,0.0,0.0,3
-99792.765,-54231.84,-99901.755,-755.64,0.0,0.0,0.0,0.0,3
-99792.99,-54224.01,-99906.525,-759.15,0.0,0.0,0.0,0.0,3
-99796.455,-54221.805,-99913.5,-765.99,0.0,0.0,0.0,0.0,3
-99788.265,-54224.28,-99905.895,-758.745,0.0,0.0,0.0,0.0,3
-99794.565,-54225.18,-99918.405,-769.59,0.0,0.0,0.0,0.0,3
-99791.28,-54227.07,-99916.065,-770.49,0.0,0.0,0.0,0.0,3
-99792.9,-54227.07,-99914.13,-767.43,0.0,0.0,0.0,0.0,3
-99792.63,-54227.79,-99914.13,-766.08,0.0,0.0,0.0,0.0,3
-99788.445,-54226.665,-99911.43,-763.605,0.0,0.0,0.0,0.0,3
-99792.945,-54229.005,-99912.78,-762.39,0.0,0.0,0.0,0.0,3
-99793.305,-54233.055,-99912.555,-762.435,0.0,0.0,0.0,0.0,3
-99795.465,-54231.48,-99914.31,-763.29,0.0,0.0,0.0,0.0,3
-99796.095,-54227.97,-99916.38,-764.865,0.0,0.0,0.0,0.0,3
-99796.275,-54227.385,-99913.185,-760.905,0.0,0.0,0.0,0.0,3
-99792.765,-54222.84,-99915.93,-763.065,0.0,0.0,0.0,0.0,3
-99791.325,-54220.995,-99911.745,-759.195,0.0,0.0,0.0,0.0,3
-99796.995,-54219.285,-99916.47,-760.14,0.0,0.0,0.0,0.0,3
-99796.05,-54220.725,-99910.845,-753.84,0.0,0.0,0.0,0.0,3
-99790.02,-54220.23,-99911.61,-759.645,0.0,0.0,0.0,0.0,3
-99794.565,-54221.535,-99925.11,-774.855,0.0,0.0,0.0,0.0,3
-99795.87,-54219.915,-99920.205,-767.295,0.0,0.0,0.0,0.0,3
-99791.73,-54217.98,-99911.115,-757.53,0.0,0.0,0.0,0.0,3
-99792.45,-54216.765,-99912.33,-756.855,0.0,0.0,0.0,0.0,3
-99792.72,-54219.015,-99924.345,-770.895,0.0,0.0,0.0,0.0,3
-99790.965,-54215.865,-99915.75,-763.02,0.0,0.0,0.0,0.0,3
-99797.715,-54214.56,-99930.33,-776.07,0.0,0.0,0.0,0.0,3
-99791.955,-54213.615,-99921.78,-768.915,0.0,0.0,0.0,0.0,3
-99789.975,-54213.795,-99921.15,-769.005,0.0,0.0,0.0,0.0,3
-99792.27,-54210.24,-99919.08,-766.215,0.0,0.0,0.0,0.0,3
-99795.105,-54209.655,-99919.845,-766.845,0.0,0.0,0.0,0.0,3
-99791.64,-54209.745,-99920.655,-765.945,0.0,0.0,0.0,0.0,3
-99783.315,-54206.46,-99911.925,-758.25,0.0,0.0,0.0,0.0,3
-99790.065,-54202.005,-99916.38,-761.67,0.0,0.0,0.0,0.0,3
-99794.34,-54201.87,-99913.77,-756.63,0.0,0.0,0.0,0.0,3
-99784.665,-54199.98,-99921.78,-768.24,0.0,0.0,0.0,0.0,3
-99796.59,-54199.17,-99925.29,-769.59,0.0,0.0,0.0,0.0,3
-99793.44,-54198.495,-99924.93,-771.705,0.0,0.0,0.0,0.0,3
-99793.08,-54200.655,-99924.795,-769.905,0.0,0.0,0.0,0.0,3
-99794.565,-54199.62,-99927.945,-770.31,0.0,0.0,0.0,0.0,3
-99791.865,-54199.8,-99925.65,-768.015,0.0,0.0,0.0,0.0,3
-99795.42,-54199.89,-99925.65,-767.52,0.0,0.0,0.0,0.0,3
-99793.62,-54197.28,-99917.64,-757.395,0.0,0.0,0.0,0.0,3
-99782.865,-54195.705,-99916.065,-759.195,0.0,0.0,0.0,0.0,3
-99784.575,-54196.785,-99899.595,-735.84,0.0,0.0,0.0,0.0,3
-99790.02,-54198.765,-99930.78,-777.465,0.0,0.0,0.0,0.0,3
-99802.755,-54201.735,-99938.745,-785.295,0.0,0.0,0.0,0.0,3
-99800.055,-54204.48,-99930.24,-773.37,0.0,0.0,0.0,0.0,3
-99794.565,-54205.11,-99929.025,-772.335,0.0,0.0,0.0,0.0,3
-99786.645,-54204.39,-99934.155,-779.805,0.0,0.0,0.0,0.0,3
-99794.385,-54204.345,-99929.43,-770.67,0.0,0.0,0.0,0.0,3
-99794.115,-54204.48,-99926.28,-767.745,0.0,0.0,0.0,0.0,3
-99794.565,-54196.155,-99933.435,-775.17,0.0,0.0,0.0,0.0,3
-99794.205,-54192.15,-99928.485,-770.355,0.0,0.0,0.0,0.0,3
-99799.83,-54194.445,-99928.53,-768.33,0.0,0.0,0.0,0.0,3
-99792.315,-54192.735,-99927.225,-767.565,0.0,0.0,0.0,0.0,3
-99785.295,-54192.555,-99925.29,-767.655,0.0,0.0,0.0,0.0,3
-99786.51,-54193.14,-99920.25,-762.705,0.0,0.0,0.0,0.0,3
-99792.72,-54194.625,-99923.04,-763.065,0.0,0.0,0.0,0.0,3
-99797.4,-54196.02,-99929.745,-765.495,0.0,0.0,0.0,0.0,3
-99800.325,-54199.26,-99922.815,-754.065,0.0,0.0,0.0,0.0,3
-99787.41,-54197.55,-99918.945,-758.655,0.0,0.0,0.0,0.0,3
-99788.355,-54188.595,-99935.325,-779.58,0.0,0.0,0.0,0.0,3
-99796.5,-54183.78,-99938.655,-780.48,0.0,0.0,0.0,0.0,3
-99803.43,-54186.93,-99934.155,-772.245,0.0,0.0,0.0,0.0,3
-99791.955,-54189.9,-99936.315,-776.565,0.0,0.0,0.0,0.0,3
-99790.47,-54192.285,-99928.89,-767.97,0.0,0.0,0.0,0.0,3
-99790.515,-54193.185,-99925.785,-764.865,0.0,0.0,0.0,0.0,3
-99789.615,-54196.605,-99931.86,-770.58,0.0,0.0,0.0,0.0,3
-99791.865,-54199.62,-99934.245,-773.46,0.0,0.0,0.0,0.0,3
-99795.15,-54202.635,-99933.84,-771.525,0.0,0.0,0.0,0.0,3
-99796.725,-54201.78,-99932.49,-769.455,0.0,0.0,0.0,0.0,3
-99793.665,-54199.035,-99933.57,-771.75,0.0,0.0,0.0,0.0,3
-99792.36,-54195.75,-99931.32,-769.005,0.0,0.0,0.0,0.0,3
-99791.28,-54195.39,-99928.53,-765.225,0.0,0.0,0.0,0.0,3
-99792.765,-54193.185,-99915.93,-748.665,0.0,0.0,0.0,0.0,3
-99790.425,-54194.49,-99918.81,-755.19,0.0,0.0,0.0,0.0,3
-99797.175,-54197.235,-99949.86,-788.04,0.0,0.0,0.0,0.0,3
-99796.905,-54198.99,-99940.41,-773.19,0.0,0.0,0.0,0.0,3
-99790.245,-54198.945,-99940.05,-777.015,0.0,0.0,0.0,0.0,3
-99798.57,-54201.24,-99942.57,-778.365,0.0,0.0,0.0,0.0,3
-99794.16,-54202.815,-99926.82,-762.39,0.0,0.0,0.0,0.0,3
-99790.83,-54199.44,-99935.505,-773.055,0.0,0.0,0.0,0.0,3
-99795.465,-54193.545,-99935.64,-772.065,0.0,0.0,0.0,0.0,3
-99795.78,-54193.095,-99938.205,-773.865,0.0,0.0,0.0,0.0,3
-99791.595,-54193.77,-99935.955,-772.56,0.0,0.0,0.0,0.0,3
-99791.505,-54195.93,-99935.28,-771.885,0.0,0.0,0.0,0.0,3
-99793.395,-54197.91,-99935.415,-770.445,0.0,0.0,0.0,0.0,3
-99793.98,-54200.97,-99936.675,-771.705,0.0,0.0,0.0,0.0,3
-99793.44,-54203.355,-99937.485,-772.245,0.0,0.0,0.0,0.0,3
-99793.98,-54207.045,-99940.23,-774.945,0.0,0.0,0.0,0.0,3
-99795.105,-54211.275,-99937.215,-770.67,0.0,0.0,0.0,0.0,3
-99796.68,-54207.045,-99936.945,-768.6,0.0,0.0,0.0,0.0,3
-99794.7,-54203.715,-99933.705,-765.27,0.0,0.0,0.0,0.0,3
-99797.625,-54205.245,-99940.185,-770.04,0.0,0.0,0.0,0.0,3
-99794.88,-54207.18,-99937.62,-771.345,0.0,0.0,0.0,0.0,3
-99787.59,-54209.655,-99931.68,-765.54,0.0,0.0,0.0,0.0,3
-99786.24,-54210.105,-99934.785,-772.02,0.0,0.0,0.0,0.0,3
-99790.38,-54212.535,-99937.575,-772.065,0.0,0.0,0.0,0.0,3
-99789.345,-54215.82,-99935.235,-770.535,0.0,0.0,0.0,0.0,3
-99790.065,-54219.78,-99944.415,-778.05,0.0,0.0,0.0,0.0,3
-99792.54,-54219.915,-99947.43,-779.49,0.0,0.0,0.0,0.0,3
-99792.36,-54215.505,-99945.99,-779.04,0.0,0.0,0.0,0.0,3
-99792.135,-54210.87,-99947.385,-779.625,0.0,0.0,0.0,0.0,3
-99793.89,-54212.76,-99942.615,-772.875,0.0,0.0,0.0,0.0,3
-99790.875,-54214.605,-99941.49,-772.38,0.0,0.0,0.0,0.0,3
-99790.605,-54217.08,-99940.86,-771.21,0.0,0.0,0.0,0.0,3
-99797.085,-54221.355,-99947.79,-773.73,0.0,0.0,0.0,0.0,3
-99790.875,-54224.64,-99938.79,-763.83,0.0,0.0,0.0,0.0,3
-99792.945,-54223.065,-99936.855,-766.485,0.0,0.0,0.0,0.0,3
-99788.085,-54221.805,-99938.835,-765.72,0.0,0.0,0.0,0.0,3
-99788.625,-54220.5,-99939.87,-766.44,0.0,0.0,0.0,0.0,3
-99788.175,-54217.575,-99931.815,-761.04,0.0,0.0,0.0,0.0,3
-99792.54,-54219.06,-99930.465,-755.505,0.0,0.0,0.0,0.0,3
-99788.4,-54221.895,-99933.03,-764.145,0.0,0.0,0.0,0.0,3
-99787.455,-54226.395,-99943.515,-776.925,0.0,0.0,0.0,0.0,3
-99789.705,-54231.12,-99944.28,-772.92,0.0,0.0,0.0,0.0,3
-99791.64,-54233.37,-99945.0,-768.915,0.0,0.0,0.0,0.0,3
-99788.67,-54235.53,-99944.46,-770.445,0.0,0.0,0.0,0.0,3
-99791.91,-54235.845,-99948.735,-773.64,0.0,0.0,0.0,0.0,3
-99791.145,-54237.33,-99945.045,-768.645,0.0,0.0,0.0,0.0,3
-99791.82,-54237.555,-99941.04,-761.715,0.0,0.0,0.0,0.0,3
-99787.725,-54229.77,-99942.075,-767.295,0.0,0.0,0.0,0.0,3
-99789.84,-54222.525,-99937.8,-760.005,0.0,0.0,0.0,0.0,3
-99790.47,-54222.57,-99947.7,-767.07,0.0,0.0,0.0,0.0,3
-99791.82,-54223.155,-99955.44,-781.74,0.0,0.0,0.0,0.0,3
-99787.365,-54224.955,-99953.145,-779.805,0.0,0.0,0.0,0.0,3
-99787.68,-54226.395,-99963.99,-790.47,0.0,0.0,0.0,0.0,3
-99789.84,-54228.645,-99956.88,-784.035,0.0,0.0,0.0,0.0,3
-99788.04,-54229.23,-99953.82,-779.985,0.0,0.0,0.0,0.0,3
-99786.195,-54230.58,-99950.265,-776.475,0.0,0.0,0.0,0.0,3
-99793.08,-54229.77,-99955.53,-779.4,0.0,0.0,0.0,0.0,3
-99793.755,-54230.715,-99953.46,-776.34,0.0,0.0,0.0,0.0,3
-99784.08,-54227.745,-99944.235,-770.04,0.0,0.0,0.0,0.0,3
-99782.865,-54226.395,-99943.065,-768.465,0.0,0.0,0.0,0.0,3
-99795.465,-54231.21,-99956.34,-778.23,0.0,0.0,0.0,0.0,3
-99801.63,-54237.96,-99952.74,-770.715,0.0,0.0,0.0,0.0,3
-99794.295,-54240.39,-99943.965,-762.615,0.0,0.0,0.0,0.0,3
-99784.71,-54240.345,-99931.005,-749.97,0.0,0.0,0.0,0.0,3
-99781.425,-54241.065,-99928.035,-755.505,0.0,0.0,0.0,0.0,3
-99791.595,-54244.53,-99959.535,-787.545,0.0,0.0,0.0,0.0,3
-99796.14,-54240.345,-99965.835,-783.99,0.0,0.0,0.0,0.0,3
-99791.37,-54229.815,-99957.555,-778.185,0.0,0.0,0.0,0.0,3
-99792.27,-54225.405,-99955.935,-776.88,0.0,0.0,0.0,0.0,3
-99790.92,-54227.88,-99954.405,-774.81,0.0,0.0,0.0,0.0,3
-99790.47,-54226.98,-99953.955,-773.55,0.0,0.0,0.0,0.0,3
-99789.84,-54228.69,-99953.37,-772.605,0.0,0.0,0.0,0.0,3
-99789.345,-54229.68,-99951.975,-771.57,0.0,0.0,0.0,0.0,3
-99789.21,-54231.12,-99949.32,-768.105,0.0,0.0,0.0,0.0,3
-99784.215,-54229.95,-99938.925,-756.9,0.0,0.0,0.0,0.0,3
-99787.14,-54231.66,-99943.605,-762.075,0.0,0.0,0.0,0.0,3
-99795.195,-54231.075,-99954.675,-769.86,0.0,0.0,0.0,0.0,3
-99790.2,-54224.64,-99952.83,-772.695,0.0,0.0,0.0,0.0,3
-99789.84,-54220.05,-99958.23,-780.615,0.0,0.0,0.0,0.0,3
-99787.815,-54220.995,-99963.99,-791.28,0.0,0.0,0.0,0.0,3
-99791.145,-54221.49,-99957.825,-782.28,0.0,0.0,0.0,0.0,3
-99789.795,-54224.415,-99952.92,-776.115,0.0,0.0,0.0,0.0,3
-99790.47,-54223.29,-99952.965,-776.565,0.0,0.0,0.0,0.0,3
-99789.93,-54222.615,-99953.145,-775.98,0.0,0.0,0.0,0.0,3
-99789.165,-54222.48,-99948.42,-769.77,0.0,0.0,0.0,0.0,3
-99790.155,-54222.84,-99950.22,-770.445,0.0,0.0,0.0,0.0,3
-99793.215,-54219.555,-99952.65,-770.58,0.0,0.0,0.0,0.0,3
-99788.535,-54215.145,-99951.795,-769.995,0.0,0.0,0.0,0.0,3
-99790.245,-54212.625,-99949.14,-767.07,0.0,0.0,0.0,0.0,3
-99789.39,-54214.425,-99934.92,-751.095,0.0,0.0,0.0,0.0,3
-99791.55,-54213.93,-99960.48,-778.5,0.0,0.0,0.0,0.0,3
-99779.94,-54215.505,-99967.545,-792.855,0.0,0.0,0.0,0.0,3
-99784.575,-54215.955,-99955.305,-776.565,0.0,0.0,0.0,0.0,3
-99787.77,-54218.34,-99956.16,-775.53,0.0,0.0,0.0,0.0,3
-99789.345,-54216.855,-99966.15,-788.625,0.0,0.0,0.0,0.0,3
-99795.465,-54216.63,-99957.24,-775.305,0.0,0.0,0.0,0.0,3
-99788.13,-54217.62,-99948.24,-764.37,0.0,0.0,0.0,0.0,3
-99783.495,-54213.48,-99950.04,-767.07,0.0,0.0,0.0,0.0,3
-99790.02,-54208.125,-99961.695,-781.965,0.0,0.0,0.0,0.0,3
-99792.99,-54207.63,-99960.795,-778.14,0.0,0.0,0.0,0.0,3
-99790.56,-54209.79,-99956.925,-773.1,0.0,0.0,0.0,0.0,3
-99790.92,-54212.805,-99957.915,-774.45,0.0,0.0,0.0,0.0,3
-99790.605,-54211.455,-99958.815,-776.07,0.0,0.0,0.0,0.0,3
-99790.605,-54213.03,-99961.02,-777.915,0.0,0.0,0.0,0.0,3
-99795.78,-54215.415,-99963.09,-778.77,0.0,0.0,0.0,0.0,3
-99797.4,-54215.82,-99949.905,-764.28,0.0,0.0,0.0,0.0,3
-99789.615,-54214.74,-99961.2,-776.835,0.0,0.0,0.0,0.0,3
-99799.11,-54211.59,-99968.22,-783.63,0.0,0.0,0.0,0.0,3
-99790.245,-54206.1,-99968.58,-782.91,0.0,0.0,0.0,0.0,3
-99794.025,-54205.965,-99965.25,-776.34,0.0,0.0,0.0,0.0,3
-99788.895,-54206.865,-99959.175,-773.775,0.0,0.0,0.0,0.0,3
-99788.67,-54209.835,-99963.72,-779.895,0.0,0.0,0.0,0.0,3
-99790.2,-54213.345,-99964.305,-779.49,0.0,0.0,0.0,0.0,3
-99789.075,-54218.655,-99959.04,-776.52,0.0,0.0,0.0,0.0,3
-99793.26,-54221.85,-99960.795,-776.115,0.0,0.0,0.0,0.0,3
-99795.24,-54223.83,-99962.19,-774.855,0.0,0.0,0.0,0.0,3
-99791.055,-54229.905,-99962.64,-779.04,0.0,0.0,0.0,0.0,3
-99786.78,-54229.905,-99956.34,-772.74,0.0,0.0,0.0,0.0,3
-99790.155,-54229.545,-99952.47,-766.08,0.0,0.0,0.0,0.0,3
-99793.035,-54232.65,-99966.15,-779.715,0.0,0.0,0.0,0.0,3
-99785.97,-54236.25,-99972.27,-786.42,0.0,0.0,0.0,0.0,3
-99788.445,-54239.94,-99971.64,-787.095,0.0,0.0,0.0,0.0,3
-99792.045,-54239.31,-99967.14,-780.48,0.0,0.0,0.0,0.0,3
-99790.695,-54242.82,-99966.645,-779.04,0.0,0.0,0.0,0.0,3
-99787.545,-54244.08,-99967.545,-782.37,0.0,0.0,0.0,0.0,3
-99787.41,-54246.015,-99965.565,-779.445,0.0,0.0,0.0,0.0,3
-99783.18,-54244.215,-99962.505,-774.72,0.0,0.0,0.0,0.0,3
-99786.645,-54236.295,-99961.605,-771.345,0.0,0.0,0.0,0.0,3
-99787.005,-54233.82,-99961.83,-772.74,0.0,0.0,0.0,0.0,3
-99788.94,-54236.565,-99962.775,-773.865,0.0,0.0,0.0,0.0,3
-99791.415,-54236.115,-99965.25,-773.28,0.0,0.0,0.0,0.0,3
-99791.82,-54236.835,-99969.705,-778.095,0.0,0.0,0.0,0.0,3
-99784.665,-54239.22,-99970.245,-781.875,0.0,0.0,0.0,0.0,3
-99789.75,-54242.865,-99965.34,-773.37,0.0,0.0,0.0,0.0,3
-99791.73,-54240.48,-99975.24,-785.88,0.0,0.0,0.0,0.0,3
-99788.895,-54239.715,-99967.77,-776.79,0.0,0.0,0.0,0.0,3
-99789.03,-54243.9,-99963.99,-772.2,0.0,0.0,0.0,0.0,3
-99788.4,-54251.46,-99976.86,-789.57,0.0,0.0,0.0,0.0,3
-99789.705,-54253.215,-99975.69,-784.665,0.0,0.0,0.0,0.0,3
-99795.78,-54254.565,-99976.005,-782.235,0.0,0.0,0.0,0.0,3
-99792.54,-54257.13,-99978.255,-784.845,0.0,0.0,0.0,0.0,3
-99792.18,-54259.02,-99971.64,-778.05,0.0,0.0,0.0,0.0,3
-99788.445,-54258.165,-99970.425,-777.87,0.0,0.0,0.0,0.0,3
-99788.22,-54259.29,-99973.665,-779.895,0.0,0.0,0.0,0.0,3
-99792.405,-54262.17,-99978.795,-784.08,0.0,0.0,0.0,0.0,3
-99795.87,-54264.915,-99976.95,-781.155,0.0,0.0,0.0,0.0,3
-99791.505,-54260.82,-99966.78,-770.805,0.0,0.0,0.0,0.0,3
-99784.8,-54250.065,-99971.82,-777.87,0.0,0.0,0.0,0.0,3
-99790.245,-54247.23,-99980.91,-786.105,0.0,0.0,0.0,0.0,3
-99786.69,-54249.3,-99972.765,-778.77,0.0,0.0,0.0,0.0,3
-99789.48,-54252.495,-99965.79,-770.13,0.0,0.0,0.0,0.0,3
-99788.58,-54256.59,-99961.695,-764.685,0.0,0.0,0.0,0.0,3
-99784.755,-54258.345,-99972.945,-780.57,0.0,0.0,0.0,0.0,3
-99789.93,-54259.2,-99979.56,-789.345,0.0,0.0,0.0,0.0,3
-99784.08,-54256.77,-99970.065,-775.215,0.0,0.0,0.0,0.0,3
-99780.57,-54256.95,-99972.0,-777.645,0.0,0.0,0.0,0.0,3
-99792.09,-54258.165,-99982.845,-787.095,0.0,0.0,0.0,0.0,3
-99788.94,-54256.68,-99978.165,-783.18,0.0,0.0,0.0,0.0,3
-99786.645,-54249.75,-99973.8,-780.255,0.0,0.0,0.0,0.0,3
-99789.03,-54247.815,-99979.47,-783.72,0.0,0.0,0.0,0.0,3
-99791.37,-54248.985,-99979.875,-782.73,0.0,0.0,0.0,0.0,3
-99793.665,-54250.38,-99970.515,-770.085,0.0,0.0,0.0,0.0,3
-99788.76,-54247.68,-99969.075,-771.255,0.0,0.0,0.0,0.0,3
-99794.115,-54246.465,-99978.705,-779.085,0.0,0.0,0.0,0.0,3
-99787.77,-54249.57,-99990.45,-798.615,0.0,0.0,0.0,0.0,3
-99781.29,-54250.425,-99972.72,-778.77,0.0,0.0,0.0,0.0,3
-99783.72,-54246.42,-99972.63,-777.78,0.0,0.0,0.0,0.0,3
-99793.935,-54240.57,-99990.045,-794.43,0.0,0.0,0.0,0.0,3
-99790.245,-54235.845,-99981.27,-784.305,0.0,0.0,0.0,0.0,3
-99790.695,-54236.97,-99981.18,-784.395,0.0,0.0,0.0,0.0,3
-99790.515,-54235.53,-99983.745,-787.185,0.0,0.0,0.0,0.0,3
-99787.5,-54237.24,-99979.38,-783.945,0.0,0.0,0.0,0.0,3
-99792.0,-54235.395,-99981.945,-783.315,0.0,0.0,0.0,0.0,3
-99787.905,-54234.495,-99975.465,-777.015,0.0,0.0,0.0,0.0,3
-99791.955,-54232.605,-99979.515,-780.03,0.0,0.0,0.0,0.0,3
-99787.185,-54231.795,-99968.625,-766.665,0.0,0.0,0.0,0.0,3
-99781.47,-54231.435,-99977.49,-780.93,0.0,0.0,0.0,0.0,3
-99796.905,-54227.925,-99993.24,-791.595,0.0,0.0,0.0,0.0,3
-99801.54,-54223.155,-99991.485,-788.805,0.0,0.0,0.0,0.0,3
-99792.63,-54221.31,-99988.02,-790.02,0.0,0.0,0.0,0.0,3
-99791.145,-54221.085,-99992.025,-795.42,0.0,0.0,0.0,0.0,3
-99790.83,-54220.905,-99984.285,-785.34,0.0,0.0,0.0,0.0,3
-99791.55,-54219.69,-99981.855,-782.82,0.0,0.0,0.0,0.0,3
-99795.24,-54220.095,-99981.81,-781.605,0.0,0.0,0.0,0.0,3
-99788.13,-54219.015,-99985.365,-786.555,0.0,0.0,0.0,0.0,3
-99790.155,-54220.86,-99985.455,-786.78,0.0,0.0,0.0,0.0,3
-99794.925,-54222.615,-99986.625,-789.57,0.0,0.0,0.0,0.0,3
-99793.215,-54221.67,-99984.915,-785.52,0.0,0.0,0.0,0.0,3
-99795.645,-54222.885,-99981.495,-776.115,0.0,0.0,0.0,0.0,3
-99796.23,-54223.92,-99973.215,-768.915,0.0,0.0,0.0,0.0,3
-99791.82,-54222.795,-99981.09,-782.055,0.0,0.0,0.0,0.0,3
-99789.795,-54221.895,-99988.92,-788.4,0.0,0.0,0.0,0.0,3
-99793.665,-54221.22,-99993.78,-795.915,0.0,0.0,0.0,0.0,3
-99794.61,-54223.29,-99988.74,-788.625,0.0,0.0,0.0,0.0,3
-99792.63,-54227.205,-99988.56,-789.03,0.0,0.0,0.0,0.0,3
-99794.655,-54231.795,-99990.225,-790.56,0.0,0.0,0.0,0.0,3
-99794.565,-54232.425,-99989.685,-789.75,0.0,0.0,0.0,0.0,3
-99798.03,-54230.445,-99989.28,-788.265,0.0,0.0,0.0,0.0,3
-99798.705,-54228.87,-99984.78,-784.575,0.0,0.0,0.0,0.0,3
-99793.71,-54230.49,-99986.49,-787.95,0.0,0.0,0.0,0.0,3
-99792.63,-54233.01,-99988.335,-789.165,0.0,0.0,0.0,0.0,3
-99792.72,-54238.545,-99988.605,-789.615,0.0,0.0,0.0,0.0,3
-99790.74,-54242.055,-99983.655,-784.17,0.0,0.0,0.0,0.0,3
-99792.495,-54245.97,-99981.495,-776.52,0.0,0.0,0.0,0.0,3
-99788.895,-54247.995,-99983.16,-780.795,0.0,0.0,0.0,0.0,3
-99796.41,-54250.74,-99980.955,-775.44,0.0,0.0,0.0,0.0,3
-99799.74,-54250.875,-99994.05,-790.785,0.0,0.0,0.0,0.0,3
-99796.68,-54252.99,-100002.78,-804.78,0.0,0.0,0.0,0.0,3
-99795.69,-54249.39,-99990.27,-789.84,0.0,0.0,0.0,0.0,3
-99797.445,-54249.435,-100003.545,-804.465,0.0,0.0,0.0,0.0,3
-99801.54,-54251.505,-100000.71,-797.94,0.0,0.0,0.0,0.0,3
-99797.715,-54255.105,-99997.38,-796.32,0.0,0.0,0.0,0.0,3
-99797.175,-54257.94,-99993.78,-792.54,0.0,0.0,0.0,0.0,3
-99799.245,-54263.25,-99995.31,-791.145,0.0,0.0,0.0,0.0,3
-99797.355,-54264.825,-99998.505,-795.015,0.0,0.0,0.0,0.0,3
-99803.205,-54264.42,-100000.665,-795.555,0.0,0.0,0.0,0.0,3
-99805.14,-54260.685,-99985.59,-777.69,0.0,0.0,0.0,0.0,3
-99794.97,-54251.82,-99992.385,-791.19,0.0,0.0,0.0,0.0,3
-99791.955,-54250.245,-100012.185,-810.99,0.0,0.0,0.0,0.0,3
-99792.945,-54255.915,-99995.04,-790.965,0.0,0.0,0.0,0.0,3
-99794.34,-54262.575,-99989.415,-784.665,0.0,0.0,0.0,0.0,3
-99798.03,-54268.965,-99995.715,-790.425,0.0,0.0,0.0,0.0,3
-99801.54,-54272.475,-100003.5,-797.31,0.0,0.0,0.0,0.0,3
-99799.335,-54276.03,-100002.915,-800.055,0.0,0.0,0.0,0.0,3
-99800.865,-54276.705,-99993.195,-787.545,0.0,0.0,0.0,0.0,3
-99796.68,-54279.045,-99991.62,-783.45,0.0,0.0,0.0,0.0,3
-99792.45,-54279.225,-100001.34,-797.625,0.0,0.0,0.0,0.0,3
-99796.185,-54271.08,-99999.225,-795.105,0.0,0.0,0.0,0.0,3
-99795.33,-54267.12,-99996.57,-792.765,0.0,0.0,0.0,0.0,3
-99798.12,-54268.605,-99999.855,-794.07,0.0,0.0,0.0,0.0,3
-99796.23,-54269.01,-99996.03,-789.705,0.0,0.0,0.0,0.0,3
-99799.56,-54271.755,-99997.83,-789.48,0.0,0.0,0.0,0.0,3
-99794.79,-54272.205,-99999.36,-791.685,0.0,0.0,0.0,0.0,3
-99793.125,-54274.77,-100001.385,-796.275,0.0,0.0,0.0,0.0,3
-99797.535,-54277.29,-100005.57,-799.155,0.0,0.0,0.0,0.0,3
-99798.21,-54281.16,-100003.59,-795.825,0.0,0.0,0.0,0.0,3
-99794.7,-54282.06,-99994.815,-786.465,0.0,0.0,0.0,0.0,3
-99791.82,-54275.265,-99994.05,-783.99,0.0,0.0,0.0,0.0,3
-99796.68,-54273.69,-99999.54,-789.48,0.0,0.0,0.0,0.0,3
-99801.09,-54277.425,-100008.495,-800.55,0.0,0.0,0.0,0.0,3
-99804.78,-54278.55,-100007.685,-797.31,0.0,0.0,0.0,0.0,3
-99799.695,-54280.89,-100003.68,-792.045,0.0,0.0,0.0,0.0,3
-99789.705,-54280.17,-99995.04,-786.555,0.0,0.0,0.0,0.0,3
-99794.7,-54280.755,-100003.635,-794.925,0.0,0.0,0.0,0.0,3
-99796.5,-54281.79,-100010.34,-804.24,0.0,0.0,0.0,0.0,3
-99796.635,-54285.39,-100003.905,-795.015,0.0,0.0,0.0,0.0,3
-99796.815,-54286.56,-99997.335,-786.285,0.0,0.0,0.0,0.0,3
-99798.57,-54281.295,-100002.015,-789.57,0.0,0.0,0.0,0.0,3
-99795.915,-54276.615,-100007.73,-799.875,0.0,0.0,0.0,0.0,3
-99797.895,-54277.785,-100001.34,-791.595,0.0,0.0,0.0,0.0,3
-99798.3,-54279.9,-100015.515,-806.805,0.0,0.0,0.0,0.0,3
-99789.795,-54282.51,-100005.03,-798.75,0.0,0.0,0.0,0.0,3
-99792.63,-54283.23,-100008.36,-804.465,0.0,0.0,0.0,0.0,3
-99796.77,-54282.69,-100007.505,-796.95,0.0,0.0,0.0,0.0,3
-99803.925,-54283.365,-100006.785,-786.195,0.0,0.0,0.0,0.0,3
-99799.74,-54284.49,-99993.915,-774.99,0.0,0.0,0.0,0.0,3
-99788.67,-54283.905,-100015.65,-809.865,0.0,0.0,0.0,0.0,3
-99794.025,-54274.365,-100017.72,-811.17,0.0,0.0,0.0,0.0,3
-99793.89,-54268.965,-100008.675,-797.67,0.0,0.0,0.0,0.0,3
-99791.145,-54267.75,-100001.43,-789.48,0.0,0.0,0.0,0.0,3
-99798.705,-54268.965,-100006.245,-794.475,0.0,0.0,0.0,0.0,3
-99795.6,-54270.045,-100014.93,-803.97,0.0,0.0,0.0,0.0,3
-99794.475,-54270.675,-100011.24,-799.02,0.0,0.0,0.0,0.0,3
-99797.4,-54273.87,-100009.98,-797.355,0.0,0.0,0.0,0.0,3
-99797.76,-54277.83,-100007.82,-794.7,0.0,0.0,0.0,0.0,3
-99796.23,-54281.34,-100013.13,-802.89,0.0,0.0,0.0,0.0,3
-99798.21,-54282.735,-100008.18,-797.265,0.0,0.0,0.0,0.0,3
-99790.515,-54290.25,-99993.33,-780.615,0.0,0.0,0.0,0.0,3
-99787.365,-54296.145,-99995.625,-780.39,0.0,0.0,0.0,0.0,3
-99784.935,-54301.455,-99996.435,-782.64,0.0,0.0,0.0,0.0,3
-99796.545,-54305.82,-100018.575,-808.425,0.0,0.0,0.0,0.0,3
-99803.205,-54308.34,-100017.045,-804.645,0.0,0.0,0.0,0.0,3
-99797.94,-54308.655,-100004.76,-791.01,0.0,0.0,0.0,0.0,3
-99799.065,-54309.78,-99998.775,-779.04,0.0,0.0,0.0,0.0,3
-99797.355,-54308.52,-100008.495,-793.125,0.0,0.0,0.0,0.0,3
-99799.515,-54309.015,-100010.835,-796.185,0.0,0.0,0.0,0.0,3
-99798.48,-54309.51,-100015.605,-803.34,0.0,0.0,0.0,0.0,3
-99799.11,-54306.225,-100013.67,-799.29,0.0,0.0,0.0,0.0,3
-99799.29,-54303.03,-100011.24,-796.32,0.0,0.0,0.0,0.0,3
-99799.155,-54305.28,-100010.43,-796.095,0.0,0.0,0.0,0.0,3
-99799.065,-54305.82,-100009.845,-795.555,0.0,0.0,0.0,0.0,3
-99793.305,-54305.37,-100006.92,-794.745,0.0,0.0,0.0,0.0,3
-99790.38,-54306.495,-100007.415,-794.34,0.0,0.0,0.0,0.0,3
-99803.52,-54309.69,-100014.84,-795.465,0.0,0.0,0.0,0.0,3
-99800.955,-54310.905,-100018.035,-802.755,0.0,0.0,0.0,0.0,3
-99797.805,-54312.345,-100009.755,-794.16,0.0,0.0,0.0,0.0,3
-99799.92,-54313.02,-100011.195,-794.7,0.0,0.0,0.0,0.0,3
-99797.49,-54312.12,-100014.57,-799.74,0.0,0.0,0.0,0.0,3
-99801.72,-54310.095,-100014.255,-797.22,0.0,0.0,0.0,0.0,3
-99801.72,-54312.615,-100017.54,-804.555,0.0,0.0,0.0,0.0,3
-99793.53,-54316.17,-100021.455,-811.575,0.0,0.0,0.0,0.0,3
-99796.635,-54319.14,-100022.94,-808.065,0.0,0.0,0.0,0.0,3
-99797.175,-54319.05,-100022.58,-810.27,0.0,0.0,0.0,0.0,3
-99798.57,-54320.445,-100014.705,-800.235,0.0,0.0,0.0,0.0,3
-99792.9,-54320.13,-100012.905,-800.145,0.0,0.0,0.0,0.0,3
-99791.73,-54321.705,-100006.83,-798.39,0.0,0.0,0.0,0.0,3
-99795.285,-54325.125,-100012.59,-798.345,0.0,0.0,0.0,0.0,3
-99794.115,-54318.555,-100011.24,-794.43,0.0,0.0,0.0,0.0,3
-99797.715,-54313.155,-100015.605,-798.975,0.0,0.0,0.0,0.0,3
-99808.245,-54313.965,-100030.005,-813.015,0.0,0.0,0.0,0.0,3
-99808.515,-54313.74,-100018.665,-799.515,0.0,0.0,0.0,0.0,3
-99790.605,-54314.775,-100016.19,-800.775,0.0,0.0,0.0,0.0,3
-99793.26,-54317.61,-100016.505,-801.54,0.0,0.0,0.0,0.0,3
-99802.17,-54322.515,-100020.33,-799.92,0.0,0.0,0.0,0.0,3
-99800.64,-54324.855,-100016.145,-795.24,0.0,0.0,0.0,0.0,3
-99795.33,-54328.365,-100012.77,-795.015,0.0,0.0,0.0,0.0,3
-99797.445,-54331.155,-100017.54,-800.28,0.0,0.0,0.0,0.0,3
-99795.195,-54334.305,-100017.315,-802.8,0.0,0.0,0.0,0.0,3
-99795.015,-54336.825,-100014.795,-796.77,0.0,0.0,0.0,0.0,3
-99801.27,-54340.47,-100016.91,-795.78,0.0,0.0,0.0,0.0,3
-99804.735,-54342.495,-100021.14,-799.515,0.0,0.0,0.0,0.0,3
-99801.72,-54345.15,-100028.385,-810.63,0.0,0.0,0.0,0.0,3
-99795.555,-54343.62,-100016.19,-798.12,0.0,0.0,0.0,0.0,3
-99793.845,-54344.52,-100016.145,-798.165,0.0,0.0,0.0,0.0,3
-99802.89,-54344.7,-100027.17,-808.155,0.0,0.0,0.0,0.0,3
-99806.445,-54345.645,-100030.275,-810.18,0.0,0.0,0.0,0.0,3
-99801.81,-54346.635,-100026.405,-806.49,0.0,0.0,0.0,0.0,3
-99800.685,-54345.555,-100024.74,-805.23,0.0,0.0,0.0,0.0,3
-99802.035,-54343.62,-100024.785,-803.97,0.0,0.0,0.0,0.0,3
-99800.955,-54344.295,-100022.985,-801.675,0.0,0.0,0.0,0.0,3
-99803.295,-54346.68,-100018.35,-796.815,0.0,0.0,0.0,0.0,3
-99807.615,-54349.515,-100028.655,-806.805,0.0,0.0,0.0,0.0,3
-99798.255,-54348.21,-100030.5,-812.43,0.0,0.0,0.0,0.0,3
-99800.28,-54347.715,-100027.26,-806.805,0.0,0.0,0.0,0.0,3
-99801.315,-54346.005,-100027.395,-806.625,0.0,0.0,0.0,0.0,3
-99800.145,-54346.05,-100023.39,-801.675,0.0,0.0,0.0,0.0,3
-99796.995,-54345.69,-100021.005,-799.245,0.0,0.0,0.0,0.0,3
-99803.16,-54339.48,-100018.98,-794.52,0.0,0.0,0.0,0.0,3
-99799.605,-54334.08,-100036.305,-815.805,0.0,0.0,0.0,0.0,3
-99800.685,-54333.9,-100026.63,-806.94,0.0,0.0,0.0,0.0,3
-99806.13,-54334.89,-100034.865,-810.54,0.0,0.0,0.0,0.0,3
-99800.19,-54337.995,-100043.01,-823.59,0.0,0.0,0.0,0.0,3
-99796.59,-54336.24,-100029.195,-810.54,0.0,0.0,0.0,0.0,3
-99796.095,-54334.89,-100024.965,-805.455,0.0,0.0,0.0,0.0,3
-99796.86,-54334.53,-100027.08,-808.515,0.0,0.0,0.0,0.0,3
-99802.665,-54335.835,-100034.73,-813.195,0.0,0.0,0.0,0.0,3
-99802.845,-54337.095,-100030.995,-806.76,0.0,0.0,0.0,0.0,3
-99795.195,-54340.92,-100028.88,-810.675,0.0,0.0,0.0,0.0,3
-99797.985,-54342.585,-100030.23,-810.99,0.0,0.0,0.0,0.0,3
-99802.845,-54342.27,-100034.505,-813.33,0.0,0.0,0.0,0.0,3
-99802.305,-54340.83,-100030.59,-809.55,0.0,0.0,0.0,0.0,3
-99802.035,-54341.955,-100028.97,-808.11,0.0,0.0,0.0,0.0,3
-99804.87,-54343.485,-100031.67,-809.73,0.0,0.0,0.0,0.0,3
-99804.87,-54345.555,-100031.49,-809.775,0.0,0.0,0.0,0.0,3
-99808.02,-54346.5,-100032.615,-807.615,0.0,0.0,0.0,0.0,3
-99799.47,-54347.895,-100015.695,-788.67,0.0,0.0,0.0,0.0,3
-99796.275,-54349.29,-100012.545,-789.03,0.0,0.0,0.0,0.0,3
-99803.79,-54348.345,-100033.65,-813.24,0.0,0.0,0.0,0.0,3
-99798.84,-54345.15,-100042.38,-822.24,0.0,0.0,0.0,0.0,3
-99800.55,-54345.555,-100032.03,-809.145,0.0,0.0,0.0,0.0,3
-99805.545,-54343.17,-100038.87,-816.075,0.0,0.0,0.0,0.0,3
-99805.635,-54343.755,-100037.97,-814.95,0.0,0.0,0.0,0.0,3
-99804.105,-54346.005,-100035.18,-811.71,0.0,0.0,0.0,0.0,3
-99804.15,-54348.255,-100035.36,-811.935,0.0,0.0,0.0,0.0,3
-99804.87,-54347.805,-100036.62,-811.62,0.0,0.0,0.0,0.0,3
-99805.095,-54346.995,-100029.915,-802.485,0.0,0.0,0.0,0.0,3
-99801.09,-54344.7,-100032.075,-807.75,0.0,0.0,0.0,0.0,3
-99804.87,-54337.59,-100042.605,-818.415,0.0,0.0,0.0,0.0,3
-99805.635,-54333.945,-100037.025,-811.305,0.0,0.0,0.0,0.0,3
-99804.96,-54334.53,-100037.115,-809.235,0.0,0.0,0.0,0.0,3
-99804.87,-54334.89,-100039.185,-813.24,0.0,0.0,0.0,0.0,3
-99815.49,-54337.725,-100038.96,-810.855,0.0,0.0,0.0,0.0,3
-99803.655,-54340.02,-100042.2,-816.075,0.0,0.0,0.0,0.0,3
-99796.995,-54344.205,-100041.075,-819.495,0.0,0.0,0.0,0.0,3
-99804.015,-54344.925,-100037.7,-812.205,0.0,0.0,0.0,0.0,3
-99800.73,-54346.095,-100038.6,-814.545,0.0,0.0,0.0,0.0,3
-99802.53,-54344.79,-100040.67,-816.705,0.0,0.0,0.0,0.0,3
-99802.71,-54347.94,-100036.845,-811.62,0.0,0.0,0.0,0.0,3
-99802.665,-54351.135,-100035.945,-808.965,0.0,0.0,0.0,0.0,3
-99803.295,-54354.42,-100044.45,-821.205,0.0,0.0,0.0,0.0,3
-99804.645,-54355.365,-100038.69,-814.095,0.0,0.0,0.0,0.0,3
-99799.29,-54355.725,-100035.045,-810.99,0.0,0.0,0.0,0.0,3
-99801.27,-54359.28,-100040.58,-814.32,0.0,0.0,0.0,0.0,3
-99808.065,-54364.59,-100043.595,-815.895,0.0,0.0,0.0,0.0,3
-99804.69,-54363.915,-100041.795,-815.445,0.0,0.0,0.0,0.0,3
-99805.455,-54364.59,-100037.835,-812.745,0.0,0.0,0.0,0.0,3
-99806.85,-54364.095,-100037.79,-809.64,0.0,0.0,0.0,0.0,3
-99809.37,-54357.795,-100041.525,-811.755,0.0,0.0,0.0,0.0,3
-99805.095,-54355.635,-100040.67,-815.76,0.0,0.0,0.0,0.0,3
-99807.435,-54357.795,-100038.915,-812.43,0.0,0.0,0.0,0.0,3
-99808.515,-54360.54,-100046.295,-820.89,0.0,0.0,0.0,0.0,3
-99806.22,-54363.555,-100043.325,-817.245,0.0,0.0,0.0,0.0,3
-99806.31,-54363.78,-100040.265,-813.375,0.0,0.0,0.0,0.0,3
-99805.545,-54362.565,-100038.78,-810.9,0.0,0.0,0.0,0.0,3
-99802.485,-54363.51,-100040.67,-814.095,0.0,0.0,0.0,0.0,3
-99802.98,-54365.985,-100036.845,-808.92,0.0,0.0,0.0,0.0,3
-99804.78,-54368.1,-100043.37,-816.12,0.0,0.0,0.0,0.0,3
-99803.88,-54366.21,-100041.93,-813.78,0.0,0.0,0.0,0.0,3
-99802.26,-54363.42,-100031.625,-799.875,0.0,0.0,0.0,0.0,3
-99808.965,-54363.735,-100040.49,-806.94,0.0,0.0,0.0,0.0,3
-99815.94,-54365.175,-100059.84,-834.48,0.0,0.0,0.0,0.0,3
-99819.09,-54365.625,-100050.84,-823.545,0.0,0.0,0.0,0.0,3
-99811.17,-54365.715,-100044.45,-815.535,0.0,0.0,0.0,0.0,3
-99801.0,-54367.02,-100046.385,-822.465,0.0,0.0,0.0,0.0,3
-99801.72,-54364.68,-100045.755,-820.89,0.0,0.0,0.0,0.0,3
-99805.05,-54367.155,-100046.565,-820.035,0.0,0.0,0.0,0.0,3
-99806.67,-54372.33,-100045.755,-818.955,0.0,0.0,0.0,0.0,3
-99806.625,-54371.745,-100047.465,-821.07,0.0,0.0,0.0,0.0,3
-99808.74,-54373.05,-100047.195,-819.09,0.0,0.0,0.0,0.0,3
-99806.625,-54374.04,-100037.205,-807.345,0.0,0.0,0.0,0.0,3
-99806.805,-54375.255,-100035.405,-805.275,0.0,0.0,0.0,0.0,3
-99808.83,-54379.35,-100053.0,-825.615,0.0,0.0,0.0,0.0,3
-99803.97,-54382.455,-100048.095,-823.005,0.0,0.0,0.0,0.0,3
-99807.48,-54386.46,-100051.02,-823.32,0.0,0.0,0.0,0.0,3
-99808.65,-54388.62,-100053.945,-825.48,0.0,0.0,0.0,0.0,3
-99808.02,-54392.445,-100055.34,-825.48,0.0,0.0,0.0,0.0,3
-99806.31,-54394.29,-100053.09,-823.14,0.0,0.0,0.0,0.0,3
-99804.465,-54388.845,-100054.89,-825.57,0.0,0.0,0.0,0.0,3
-99805.32,-54387.09,-100058.13,-828.63,0.0,0.0,0.0,0.0,3
-99808.605,-54389.52,-100043.64,-808.92,0.0,0.0,0.0,0.0,3
-99806.175,-54392.31,-100051.02,-821.385,0.0,0.0,0.0,0.0,3
-99805.23,-54395.145,-100045.575,-814.185,0.0,0.0,0.0,0.0,3
-99806.445,-54395.595,-100043.91,-810.81,0.0,0.0,0.0,0.0,3
-99807.345,-54396.45,-100053.855,-822.69,0.0,0.0,0.0,0.0,3
-99807.84,-54397.17,-100051.515,-821.07,0.0,0.0,0.0,0.0,3
-99808.335,-54399.915,-100046.97,-817.245,0.0,0.0,0.0,0.0,3
-99805.005,-54399.69,-100050.525,-816.93,0.0,0.0,0.0,0.0,3
-99804.555,-54395.73,-100048.185,-814.905,0.0,0.0,0.0,0.0,3
-99805.995,-54394.515,-100052.46,-819.27,0.0,0.0,0.0,0.0,3
-99806.04,-54395.82,-100050.57,-816.255,0.0,0.0,0.0,0.0,3
-99804.465,-54395.82,-100052.91,-819.855,0.0,0.0,0.0,0.0,3
-99808.245,-54397.845,-100050.3,-813.555,0.0,0.0,0.0,0.0,3
-99812.385,-54400.41,-100060.065,-825.12,0.0,0.0,0.0,0.0,3
-99814.545,-54404.19,-100046.43,-808.245,0.0,0.0,0.0,0.0,3
-99798.165,-54405.0,-100049.535,-817.02,0.0,0.0,0.0,0.0,3
-99802.44,-54407.655,-100055.79,-824.445,0.0,0.0,0.0,0.0,3
-99805.095,-54406.8,-100057.59,-826.65,0.0,0.0,0.0,0.0,3
-99803.34,-54398.7,-100053.135,-820.44,0.0,0.0,0.0,0.0,3
-99805.095,-54396.495,-100051.47,-816.48,0.0,0.0,0.0,0.0,3
-99809.595,-54398.07,-100059.795,-823.815,0.0,0.0,0.0,0.0,3
-99808.38,-54397.755,-100056.645,-821.835,0.0,0.0,0.0,0.0,3
-99802.53,-54398.97,-100055.745,-823.32,0.0,0.0,0.0,0.0,3
-99802.08,-54401.31,-100052.595,-820.53,0.0,0.0,0.0,0.0,3
-99803.565,-54404.505,-100056.69,-823.365,0.0,0.0,0.0,0.0,3
-99800.775,-54404.775,-100046.79,-811.575,0.0,0.0,0.0,0.0,3
-99800.955,-54403.965,-100044.63,-808.83,0.0,0.0,0.0,0.0,3
-99806.49,-54403.245,-100050.615,-816.255,0.0,0.0,0.0,0.0,3
-99810.405,-54397.395,-100067.4,-833.445,0.0,0.0,0.0,0.0,3
-99809.46,-54394.605,-100060.785,-822.555,0.0,0.0,0.0,0.0,3
-99809.37,-54395.595,-100064.07,-828.315,0.0,0.0,0.0,0.0,3
-99804.555,-54394.38,-100059.705,-827.145,0.0,0.0,0.0,0.0,3
-99807.93,-54395.64,-100060.695,-825.57,0.0,0.0,0.0,0.0,3
-99805.905,-54396.315,-100060.155,-825.705,0.0,0.0,0.0,0.0,3
-99804.015,-54396.0,-100053.765,-818.82,0.0,0.0,0.0,0.0,3
-99803.79,-54394.29,-100050.435,-813.78,0.0,0.0,0.0,0.0,3
-99802.62,-54397.305,-100059.21,-822.42,0.0,0.0,0.0,0.0,3
-99807.84,-54400.05,-100063.665,-828.495,0.0,0.0,0.0,0.0,3
-99806.355,-54394.875,-100065.735,-831.51,0.0,0.0,0.0,0.0,3
-99806.625,-54391.95,-100062.855,-826.695,0.0,0.0,0.0,0.0,3
-99806.13,-54390.87,-100061.955,-824.535,0.0,0.0,0.0,0.0,3
-99799.065,-54390.42,-100053.54,-816.795,0.0,0.0,0.0,0.0,3
-99803.16,-54392.265,-100062.9,-829.215,0.0,0.0,0.0,0.0,3
-99806.49,-54391.545,-100066.365,-829.215,0.0,0.0,0.0,0.0,3
-99805.995,-54393.165,-100063.845,-825.21,0.0,0.0,0.0,0.0,3
-99805.14,-54393.03,-100061.82,-823.5,0.0,0.0,0.0,0.0,3
-99808.74,-54394.245,-100067.13,-828.63,0.0,0.0,0.0,0.0,3
-99809.145,-54392.175,-100066.095,-827.37,0.0,0.0,0.0,0.0,3
-99810.045,-54382.05,-100063.485,-824.355,0.0,0.0,0.0,0.0,3
-99810.9,-54375.795,-100067.445,-829.62,0.0,0.0,0.0,0.0,3
-99808.29,-54376.74,-100066.185,-826.155,0.0,0.0,0.0,0.0,3
-99810.765,-54378.99,-100063.44,-821.565,0.0,0.0,0.0,0.0,3
-99804.465,-54383.355,-100058.625,-817.065,0.0,0.0,0.0,0.0,3
-99798.75,-54383.805,-100057.14,-817.29,0.0,0.0,0.0,0.0,3
-99802.035,-54385.425,-100058.13,-821.475,0.0,0.0,0.0,0.0,3
-99813.105,-54387.585,-100070.865,-832.095,0.0,0.0,0.0,0.0,3
-99807.75,-54387.9,-100063.485,-822.6,0.0,0.0,0.0,0.0,3
-99815.625,-54388.305,-100064.745,-821.475,0.0,0.0,0.0,0.0,3
-99809.415,-54384.57,-100066.005,-825.03,0.0,0.0,0.0,0.0,3
-99804.195,-54383.805,-100074.06,-839.43,0.0,0.0,0.0,0.0,3
-99809.28,-54386.415,-100070.145,-831.645,0.0,0.0,0.0,0.0,3
-99814.005,-54388.215,-100079.145,-839.43,0.0,0.0,0.0,0.0,3
-99812.205,-54390.555,-100068.525,-827.955,0.0,0.0,0.0,0.0,3
-99805.815,-54390.96,-100068.525,-831.015,0.0,0.0,0.0,0.0,3
-99808.83,-54389.43,-100067.94,-829.395,0.0,0.0,0.0,0.0,3
-99804.96,-54390.465,-100065.78,-826.11,0.0,0.0,0.0,0.0,3
-99806.04,-54395.145,-100064.34,-822.15,0.0,0.0,0.0,0.0,3
-99808.335,-54392.715,-100060.74,-818.19,0.0,0.0,0.0,0.0,3
-99809.865,-54384.975,-100070.82,-832.455,0.0,0.0,0.0,0.0,3
-99808.605,-54384.795,-100077.885,-837.54,0.0,0.0,0.0,0.0,3
-99805.59,-54387.99,-100064.07,-823.77,0.0,0.0,0.0,0.0,3
-99802.53,-54393.345,-100059.84,-820.125,0.0,0.0,0.0,0.0,3
-99807.345,-54397.98,-100076.22,-838.935,0.0,0.0,0.0,0.0,3
-99809.82,-54397.305,-100077.885,-839.79,0.0,0.0,0.0,0.0,3
-99809.055,-54398.79,-100073.34,-833.355,0.0,0.0,0.0,0.0,3
-99807.03,-54402.93,-100068.48,-827.64,0.0,0.0,0.0,0.0,3
-99810.135,-54408.42,-100075.185,-835.02,0.0,0.0,0.0,0.0,3
-99812.88,-54408.645,-100070.46,-830.43,0.0,0.0,0.0,0.0,3
-99812.07,-54404.28,-100072.845,-833.31,0.0,0.0,0.0,0.0,3
-99811.62,-54404.73,-100073.565,-833.985,0.0,0.0,0.0,0.0,3
-99812.115,-54408.105,-100073.34,-832.77,0.0,0.0,0.0,0.0,3
-99810.495,-54408.33,-100071.675,-831.105,0.0,0.0,0.0,0.0,3
-99814.23,-54410.625,-100071.18,-827.595,0.0,0.0,0.0,0.0,3
-99810.18,-54410.985,-100061.685,-818.955,0.0,0.0,0.0,0.0,3
-99806.13,-54412.2,-100080.27,-842.265,0.0,0.0,0.0,0.0,3
-99808.155,-54412.245,-100076.715,-837.945,0.0,0.0,0.0,0.0,3
-99807.48,-54413.955,-100064.34,-825.21,0.0,0.0,0.0,0.0,3
-99813.42,-54415.575,-100078.155,-838.98,0.0,0.0,0.0,0.0,3
-99814.815,-54412.2,-100078.92,-838.575,0.0,0.0,0.0,0.0,3
-99812.745,-54409.32,-100078.92,-839.43,0.0,0.0,0.0,0.0,3
-99811.935,-54408.78,-100079.055,-839.07,0.0,0.0,0.0,0.0,3
-99812.835,-54408.33,-100075.725,-835.47,0.0,0.0,0.0,0.0,3
-99810.18,-54410.94,-100073.88,-833.445,0.0,0.0,0.0,0.0,3
-99809.505,-54411.795,-100071.765,-831.735,0.0,0.0,0.0,0.0,3
-99811.89,-54412.83,-100071.405,-829.215,0.0,0.0,0.0,0.0,3
-99817.29,-54414.0,-100078.74,-833.445,0.0,0.0,0.0,0.0,3
-99811.395,-54416.115,-100067.445,-823.725,0.0,0.0,0.0,0.0,3
-99807.57,-54413.82,-100078.74,-838.98,0.0,0.0,0.0,0.0,3
-99809.01,-54408.33,-100080.27,-840.69,0.0,0.0,0.0,0.0,3
-99812.07,-54398.43,-100083.375,-843.84,0.0,0.0,0.0,0.0,3
-99813.69,-54394.56,-100084.905,-842.13,0.0,0.0,0.0,0.0,3
-99812.295,-54394.11,-100080.765,-838.845,0.0,0.0,0.0,0.0,3
-99809.865,-54396.855,-100080.765,-840.51,0.0,0.0,0.0,0.0,3
-99812.79,-54403.965,-100080.765,-839.16,0.0,0.0,0.0,0.0,3
-99808.065,-54407.34,-100076.265,-835.11,0.0,0.0,0.0,0.0,3
-99809.91,-54406.44,-100071.855,-828.0,0.0,0.0,0.0,0.0,3
-99814.815,-54405.405,-100083.375,-841.995,0.0,0.0,0.0,0.0,3
-99813.42,-54401.985,-100080.81,-840.465,0.0,0.0,0.0,0.0,3
-99812.745,-54396.495,-100084.095,-842.31,0.0,0.0,0.0,0.0,3
-99813.645,-54395.595,-100085.49,-845.19,0.0,0.0,0.0,0.0,3
-99814.59,-54397.44,-100071.315,-828.72,0.0,0.0,0.0,0.0,3
-99810.315,-54397.575,-100076.49,-833.94,0.0,0.0,0.0,0.0,3
-99815.49,-54398.07,-100084.545,-842.355,0.0,0.0,0.0,0.0,3
-99811.98,-54397.89,-100078.92,-837.63,0.0,0.0,0.0,0.0,3
-99810.09,-54398.97,-100083.24,-842.175,0.0,0.0,0.0,0.0,3
-99811.215,-54396.45,-100083.645,-841.77,0.0,0.0,0.0,0.0,3
-99813.87,-54395.28,-100079.955,-837.09,0.0,0.0,0.0,0.0,3
-99812.97,-54395.37,-100081.35,-838.575,0.0,0.0,0.0,0.0,3
-99812.205,-54388.62,-100080.09,-836.01,0.0,0.0,0.0,0.0,3
-99811.98,-54381.285,-100075.365,-829.935,0.0,0.0,0.0,0.0,3
-99808.02,-54381.42,-100074.555,-829.53,0.0,0.0,0.0,0.0,3
-99805.59,-54378.72,-100068.525,-824.085,0.0,0.0,0.0,0.0,3
-99813.15,-54379.17,-100085.85,-842.445,0.0,0.0,0.0,0.0,3
-99820.53,-54378.9,-100084.365,-838.125,0.0,0.0,0.0,0.0,3
-99816.255,-54377.505,-100075.815,-826.965,0.0,0.0,0.0,0.0,3
-99806.94,-54375.075,-100080.225,-838.395,0.0,0.0,0.0,0.0,3
-99807.57,-54373.095,-100081.755,-840.78,0.0,0.0,0.0,0.0,3
-99809.415,-54370.89,-100085.22,-844.83,0.0,0.0,0.0,0.0,3
-99812.97,-54371.295,-100086.795,-846.27,0.0,0.0,0.0,0.0,3
-99820.08,-54370.44,-100086.345,-842.67,0.0,0.0,0.0,0.0,3
-99814.59,-54371.295,-100084.545,-841.455,0.0,0.0,0.0,0.0,3
-99819.315,-54370.485,-100088.505,-844.065,0.0,0.0,0.0,0.0,3
-99818.055,-54370.08,-100088.28,-843.93,0.0,0.0,0.0,0.0,3
-99817.515,-54367.38,-100084.635,-838.485,0.0,0.0,0.0,0.0,3
-99818.73,-54366.48,-100083.195,-834.165,0.0,0.0,0.0,0.0,3
-99814.86,-54365.58,-100083.78,-835.92,0.0,0.0,0.0,0.0,3
-99812.43,-54365.4,-100088.82,-846.135,0.0,0.0,0.0,0.0,3
-99815.265,-54361.575,-100089.405,-845.82,0.0,0.0,0.0,0.0,3
-99819.72,-54353.295,-100091.88,-845.955,0.0,0.0,0.0,0.0,3
-99813.69,-54345.87,-100085.94,-840.735,0.0,0.0,0.0,0.0,3
-99810.63,-54344.25,-100086.66,-842.445,0.0,0.0,0.0,0.0,3
-99814.275,-54340.335,-100081.44,-834.885,0.0,0.0,0.0,0.0,3
-99815.49,-54336.69,-100082.565,-840.195,0.0,0.0,0.0,0.0,3
-99812.295,-54337.905,-100084.365,-839.88,0.0,0.0,0.0,0.0,3
-99814.095,-54340.29,-100089.27,-841.995,0.0,0.0,0.0,0.0,3
-99812.115,-54338.535,-100088.685,-841.725,0.0,0.0,0.0,0.0,3
-99809.955,-54337.5,-100085.94,-838.305,0.0,0.0,0.0,0.0,3
-99812.025,-54337.905,-100082.97,-837.765,0.0,0.0,0.0,0.0,3
-99819.99,-54330.84,-100099.215,-853.425,0.0,0.0,0.0,0.0,3
-99815.175,-54329.805,-100094.31,-847.305,0.0,0.0,0.0,0.0,3
-99809.73,-54334.08,-100079.325,-833.895,0.0,0.0,0.0,0.0,3
-99813.78,-54334.8,-100089.495,-843.21,0.0,0.0,0.0,0.0,3
-99811.395,-54340.02,-100098.72,-853.065,0.0,0.0,0.0,0.0,3
-99817.02,-54343.215,-100096.02,-848.655,0.0,0.0,0.0,0.0,3
-99815.85,-54343.845,-100087.965,-838.62,0.0,0.0,0.0,0.0,3
-99812.07,-54347.715,-100090.125,-842.625,0.0,0.0,0.0,0.0,3
-99811.71,-54351.36,-100088.505,-839.745,0.0,0.0,0.0,0.0,3
-99814.59,-54351.045,-100096.695,-848.07,0.0,0.0,0.0,0.0,3
-99815.13,-54346.05,-100089.495,-840.105,0.0,0.0,0.0,0.0,3
-99815.265,-54347.13,-100083.375,-833.355,0.0,0.0,0.0,0.0,3
-99812.43,-54349.965,-100093.185,-843.48,0.0,0.0,0.0,0.0,3
-99814.995,-54352.215,-100094.49,-846.405,0.0,0.0,0.0,0.0,3
-99821.88,-54356.04,-100100.565,-850.095,0.0,0.0,0.0,0.0,3
-99820.755,-54354.42,-100098.54,-847.935,0.0,0.0,0.0,0.0,3
-99818.325,-54353.07,-100094.895,-844.38,0.0,0.0,0.0,0.0,3
-99815.355,-54354.6,-100093.005,-843.03,0.0,0.0,0.0,0.0,3
-99814.005,-54358.02,-100090.17,-840.015,0.0,0.0,0.0,0.0,3
-99817.155,-54357.48,-100089.405,-839.115,0.0,0.0,0.0,0.0,3
-99815.13,-54353.475,-100087.56,-837.81,0.0,0.0,0.0,0.0,3
-99822.555,-54353.43,-100096.29,-842.355,0.0,0.0,0.0,0.0,3
-99825.84,-54354.105,-100108.08,-857.655,0.0,0.0,0.0,0.0,3
-99819.765,-54355.23,-100097.82,-849.87,0.0,0.0,0.0,0.0,3
-99818.415,-54360.0,-100103.04,-855.18,0.0,0.0,0.0,0.0,3
-99819.225,-54361.485,-100098.9,-848.7,0.0,0.0,0.0,0.0,3
-99817.74,-54362.205,-100096.29,-845.73,0.0,0.0,0.0,0.0,3
-99821.79,-54360.99,-100098.225,-845.55,0.0,0.0,0.0,0.0,3
-99825.39,-54364.68,-100098.54,-843.84,0.0,0.0,0.0,0.0,3
-99813.645,-54368.145,-100098.18,-850.23,0.0,0.0,0.0,0.0,3
-99816.525,-54370.935,-100103.445,-854.775,0.0,0.0,0.0,0.0,3
-99822.87,-54374.4,-100100.07,-847.665,0.0,0.0,0.0,0.0,3
-99822.15,-54380.745,-100097.28,-844.965,0.0,0.0,0.0,0.0,3
-99819.99,-54382.545,-100099.17,-847.53,0.0,0.0,0.0,0.0,3
-99812.655,-54382.185,-100097.865,-851.04,0.0,0.0,0.0,0.0,3
-99818.505,-54376.965,-100096.785,-848.16,0.0,0.0,0.0,0.0,3
-99819.045,-54375.615,-100103.76,-853.065,0.0,0.0,0.0,0.0,3
-99822.195,-54379.305,-100101.915,-850.455,0.0,0.0,0.0,0.0,3
-99821.34,-54383.49,-100095.705,-844.515,0.0,0.0,0.0,0.0,3
-99817.74,-54382.95,-100109.565,-858.87,0.0,0.0,0.0,0.0,3
-99816.795,-54375.525,-100106.55,-857.97,0.0,0.0,0.0,0.0,3
-99818.235,-54370.62,-100099.305,-846.675,0.0,0.0,0.0,0.0,3
-99822.555,-54370.755,-100103.355,-850.68,0.0,0.0,0.0,0.0,3
-99820.17,-54368.19,-100105.65,-855.045,0.0,0.0,0.0,0.0,3
-99819.045,-54368.64,-100106.055,-855.72,0.0,0.0,0.0,0.0,3
-99819.675,-54368.37,-100101.78,-849.465,0.0,0.0,0.0,0.0,3
-99813.645,-54369.135,-100097.055,-846.54,0.0,0.0,0.0,0.0,3
-99820.17,-54366.165,-100105.695,-854.82,0.0,0.0,0.0,0.0,3
-99824.715,-54365.895,-100118.205,-867.42,0.0,0.0,0.0,0.0,3
-99825.57,-54366.975,-100103.67,-849.69,0.0,0.0,0.0,0.0,3
-99825.48,-54362.34,-100095.84,-841.14,0.0,0.0,0.0,0.0,3
-99818.1,-54360.09,-100108.53,-857.115,0.0,0.0,0.0,0.0,3
-99817.02,-54360.945,-100103.445,-852.48,0.0,0.0,0.0,0.0,3
-99819.495,-54359.64,-100101.78,-850.095,0.0,0.0,0.0,0.0,3
-99826.92,-54359.415,-100110.33,-857.88,0.0,0.0,0.0,0.0,3
-99825.84,-54355.545,-100110.555,-858.24,0.0,0.0,0.0,0.0,3
-99825.435,-54353.295,-100110.285,-857.52,0.0,0.0,0.0,0.0,3
-99825.795,-54352.395,-100107.54,-854.055,0.0,0.0,0.0,0.0,3
-99825.255,-54351.72,-100109.115,-855.63,0.0,0.0,0.0,0.0,3
-99823.77,-54347.04,-100111.455,-859.68,0.0,0.0,0.0,0.0,3
-99825.84,-54334.485,-100107.27,-853.65,0.0,0.0,0.0,0.0,3
-99825.57,-54330.255,-100106.865,-852.84,0.0,0.0,0.0,0.0,3
-99827.865,-54335.61,-100104.615,-848.07,0.0,0.0,0.0,0.0,3
-99821.34,-54336.015,-100100.565,-845.595,0.0,0.0,0.0,0.0,3
-99823.545,-54338.625,-100115.055,-862.74,0.0,0.0,0.0,0.0,3
-99826.695,-54338.94,-100113.57,-860.4,0.0,0.0,0.0,0.0,3
-99824.535,-54337.68,-100110.555,-857.97,0.0,0.0,0.0,0.0,3
-99827.64,-54336.015,-100108.44,-852.615,0.0,0.0,0.0,0.0,3
-99825.39,-54336.645,-100115.865,-862.515,0.0,0.0,0.0,0.0,3
-99828.81,-54334.845,-100109.97,-852.39,0.0,0.0,0.0,0.0,3
-99823.455,-54326.385,-100101.465,-844.515,0.0,0.0,0.0,0.0,3
-99819.27,-54325.665,-100117.665,-866.565,0.0,0.0,0.0,0.0,3
-99826.74,-54327.87,-100117.98,-865.62,0.0,0.0,0.0,0.0,3
-99824.715,-54327.33,-100112.265,-857.61,0.0,0.0,0.0,0.0,3
-99819.81,-54328.05,-100105.56,-851.805,0.0,0.0,0.0,0.0,3
-99826.155,-54323.595,-100111.23,-853.875,0.0,0.0,0.0,0.0,3
-99826.155,-54320.715,-100121.49,-867.015,0.0,0.0,0.0,0.0,3
-99822.42,-54316.215,-100111.77,-855.945,0.0,0.0,0.0,0.0,3
-99821.16,-54314.145,-100112.04,-855.99,0.0,0.0,0.0,0.0,3
-99825.615,-54310.635,-100112.445,-855.765,0.0,0.0,0.0,0.0,3
-99825.48,-54303.48,-100110.465,-856.17,0.0,0.0,0.0,0.0,3
-99824.67,-54297.225,-100113.165,-858.015,0.0,0.0,0.0,0.0,3
-99823.23,-54296.01,-100114.29,-857.34,0.0,0.0,0.0,0.0,3
-99818.28,-54294.075,-100099.665,-840.735,0.0,0.0,0.0,0.0,3
-99818.145,-54294.075,-100105.155,-848.97,0.0,0.0,0.0,0.0,3
-99825.03,-54297.945,-100134.18,-880.47,0.0,0.0,0.0,0.0,3
-99827.64,-54298.665,-100127.43,-873.585,0.0,0.0,0.0,0.0,3
-99825.525,-54299.88,-100118.61,-865.17,0.0,0.0,0.0,0.0,3
-99827.55,-54304.155,-100117.98,-861.615,0.0,0.0,0.0,0.0,3
-99822.6,-54303.615,-100114.065,-858.78,0.0,0.0,0.0,0.0,3
-99826.29,-54298.53,-100121.04,-865.35,0.0,0.0,0.0,0.0,3
-99830.97,-54297.54,-100118.34,-860.49,0.0,0.0,0.0,0.0,3
-99834.525,-54300.105,-100110.015,-850.905,0.0,0.0,0.0,0.0,3
-99829.665,-54303.12,-100119.42,-863.55,0.0,0.0,0.0,0.0,3
-99820.98,-54306.945,-100115.73,-859.095,0.0,0.0,0.0,0.0,3
-99818.19,-54307.125,-100115.1,-858.69,0.0,0.0,0.0,0.0,3
-99825.885,-54308.25,-100117.305,-859.32,0.0,0.0,0.0,0.0,3
-99829.44,-54308.25,-100116.675,-856.935,0.0,0.0,0.0,0.0,3
-99826.11,-54309.15,-100114.155,-854.91,0.0,0.0,0.0,0.0,3
-99825.615,-54307.575,-100125.81,-869.58,0.0,0.0,0.0,0.0,3
-99829.62,-54301.995,-100124.955,-867.195,0.0,0.0,0.0,0.0,3
-99832.68,-54298.44,-100127.925,-868.95,0.0,0.0,0.0,0.0,3
-99830.88,-54299.16,-100113.57,-851.895,0.0,0.0,0.0,0.0,3
-99823.59,-54298.71,-100116.63,-859.455,0.0,0.0,0.0,0.0,3
-99828.405,-54300.42,-100126.845,-869.715,0.0,0.0,0.0,0.0,3
-99830.88,-54301.59,-100119.015,-858.915,0.0,0.0,0.0,0.0,3
-99829.26,-54303.48,-100119.645,-862.92,0.0,0.0,0.0,0.0,3
-99825.525,-54301.005,-100123.47,-866.655,0.0,0.0,0.0,0.0,3
-99828.18,-54301.23,-100124.235,-865.62,0.0,0.0,0.0,0.0,3
-99828.675,-54300.465,-100126.08,-871.29,0.0,0.0,0.0,0.0,3
-99829.215,-54296.685,-100123.74,-866.07,0.0,0.0,0.0,0.0,3
-99828.045,-54297.09,-100124.46,-867.33,0.0,0.0,0.0,0.0,3
-99826.38,-54300.51,-100120.185,-863.055,0.0,0.0,0.0,0.0,3
-99830.88,-54301.41,-100126.845,-869.805,0.0,0.0,0.0,0.0,3
-99832.59,-54303.48,-100125.855,-866.7,0.0,0.0,0.0,0.0,3
-99828.225,-54306.045,-100116.54,-855.225,0.0,0.0,0.0,0.0,3
-99830.52,-54309.375,-100125.585,-868.77,0.0,0.0,0.0,0.0,3
-99832.05,-54308.61,-100127.7,-870.48,0.0,0.0,0.0,0.0,3
-99826.83,-54307.215,-100126.935,-869.265,0.0,0.0,0.0,0.0,3
-99829.035,-54306.0,-100129.455,-871.605,0.0,0.0,0.0,0.0,3
-99830.34,-54302.445,-100130.355,-873.45,0.0,0.0,0.0,0.0,3
-99835.29,-54301.68,-100130.265,-872.37,0.0,0.0,0.0,0.0,3
-99837.945,-54305.55,-100136.295,-876.42,0.0,0.0,0.0,0.0,3
-99830.385,-54306.81,-100131.165,-874.53,0.0,0.0,0.0,0.0,3
-99828.54,-54310.905,-100125.27,-867.24,0.0,0.0,0.0,0.0,3
-99826.695,-54316.215,-100123.29,-864.72,0.0,0.0,0.0,0.0,3
-99832.905,-54320.85,-100132.74,-872.91,0.0,0.0,0.0,0.0,3
-99832.545,-54323.145,-100130.58,-871.11,0.0,0.0,0.0,0.0,3
-99827.28,-54324.405,-100121.895,-861.345,0.0,0.0,0.0,0.0,3
-99827.46,-54324.315,-100122.93,-861.66,0.0,0.0,0.0,0.0,3
-99831.96,-54320.445,-100124.37,-860.04,0.0,0.0,0.0,0.0,3
-99833.355,-54320.085,-100128.69,-868.14,0.0,0.0,0.0,0.0,3
-99835.56,-54321.93,-100131.165,-870.75,0.0,0.0,0.0,0.0,3
-99830.565,-54320.04,-100143.81,-887.04,0.0,0.0,0.0,0.0,3
-99836.19,-54318.87,-100139.175,-879.84,0.0,0.0,0.0,0.0,3
-99839.79,-54317.205,-100133.28,-870.255,0.0,0.0,0.0,0.0,3
-99827.595,-54318.555,-100134.045,-874.08,0.0,0.0,0.0,0.0,3
-99831.87,-54318.06,-100134.225,-872.1,0.0,0.0,0.0,0.0,3
-99836.685,-54318.555,-100133.82,-869.985,0.0,0.0,0.0,0.0,3
-99836.1,-54316.53,-100130.715,-866.52,0.0,0.0,0.0,0.0,3
-99837.18,-54307.845,-100135.845,-872.73,0.0,0.0,0.0,0.0,3
-99836.055,-54304.515,-100132.74,-868.905,0.0,0.0,0.0,0.0,3
-99830.88,-54305.055,-100133.73,-871.695,0.0,0.0,0.0,0.0,3
-99837.405,-54305.01,-100134.765,-869.085,0.0,0.0,0.0,0.0,3
-99829.665,-54307.62,-100125.99,-863.955,0.0,0.0,0.0,0.0,3
-99831.015,-54308.205,-100134.405,-872.235,0.0,0.0,0.0,0.0,3
-99833.67,-54308.655,-100132.875,-869.31,0.0,0.0,0.0,0.0,3
-99830.295,-54306.9,-100129.23,-866.025,0.0,0.0,0.0,0.0,3
-99827.865,-54308.115,-100118.97,-853.695,0.0,0.0,0.0,0.0,3
-99826.605,-54310.68,-100124.055,-861.75,0.0,0.0,0.0,0.0,3
-99829.89,-54306.135,-100142.1,-884.25,0.0,0.0,0.0,0.0,3
-99834.615,-54303.48,-100136.475,-875.295,0.0,0.0,0.0,0.0,3
-99836.37,-54305.1,-100134.855,-871.56,0.0,0.0,0.0,0.0,3
-99833.22,-54302.715,-100132.965,-871.56,0.0,0.0,0.0,0.0,3
-99830.115,-54301.5,-100132.38,-869.445,0.0,0.0,0.0,0.0,3
-99837.72,-54301.725,-100143.585,-881.865,0.0,0.0,0.0,0.0,3
-99841.005,-54302.58,-100136.34,-875.025,0.0,0.0,0.0,0.0,3
-99828.72,-54303.39,-100143.27,-882.63,0.0,0.0,0.0,0.0,3
-99828.99,-54303.885,-100138.905,-877.59,0.0,0.0,0.0,0.0,3
-99835.47,-54299.79,-100141.695,-882.09,0.0,0.0,0.0,0.0,3
-99835.38,-54290.475,-100141.155,-879.66,0.0,0.0,0.0,0.0,3
-99830.79,-54286.605,-100146.33,-887.445,0.0,0.0,0.0,0.0,3
-99829.53,-54287.82,-100133.865,-871.65,0.0,0.0,0.0,0.0,3
-99832.23,-54287.415,-100131.21,-868.455,0.0,0.0,0.0,0.0,3
-99829.755,-54287.28,-100129.545,-867.015,0.0,0.0,0.0,0.0,3
-99835.875,-54287.415,-100137.78,-874.665,0.0,0.0,0.0,0.0,3
-99837.99,-54287.415,-100141.83,-878.49,0.0,0.0,0.0,0.0,3
-99834.48,-54285.165,-100137.015,-874.53,0.0,0.0,0.0,0.0,3
-99836.145,-54283.68,-100139.355,-876.375,0.0,0.0,0.0,0.0,3
-99841.41,-54282.24,-100147.59,-884.295,0.0,0.0,0.0,0.0,3
-99840.105,-54274.32,-100142.505,-878.895,0.0,0.0,0.0,0.0,3
-99840.69,-54270.495,-100141.065,-876.78,0.0,0.0,0.0,0.0,3
-99837.54,-54272.745,-100143.45,-881.46,0.0,0.0,0.0,0.0,3
-99837.225,-54271.305,-100141.74,-878.895,0.0,0.0,0.0,0.0,3
-99838.17,-54272.295,-100140.75,-875.385,0.0,0.0,0.0,0.0,3
-99839.295,-54270.63,-100146.735,-880.65,0.0,0.0,0.0,0.0,3
-99840.15,-54270.045,-100143.36,-877.185,0.0,0.0,0.0,0.0,3
-99837.0,-54267.705,-100138.005,-872.91,0.0,0.0,0.0,0.0,3
-99837.72,-54267.525,-100144.98,-879.795,0.0,0.0,0.0,0.0,3
-99839.52,-54265.725,-100142.865,-877.5,0.0,0.0,0.0,0.0,3
-99839.565,-54258.255,-100138.545,-871.155,0.0,0.0,0.0,0.0,3
-99835.65,-54252.63,-100132.245,-864.315,0.0,0.0,0.0,0.0,3
-99830.925,-54252.54,-100143.27,-881.235,0.0,0.0,0.0,0.0,3
-99838.98,-54252.585,-100142.82,-879.93,0.0,0.0,0.0,0.0,3
-99835.245,-54252.63,-100139.04,-875.34,0.0,0.0,0.0,0.0,3
-99835.02,-54252.63,-100147.77,-882.045,0.0,0.0,0.0,0.0,3
-99835.515,-54252.99,-100144.755,-879.03,0.0,0.0,0.0,0.0,3
-99833.76,-54248.715,-100144.8,-877.815,0.0,0.0,0.0,0.0,3
-99836.415,-54249.525,-100146.645,-878.355,0.0,0.0,0.0,0.0,3
-99844.245,-54249.615,-100147.59,-879.705,0.0,0.0,0.0,0.0,3
-99845.955,-54247.14,-100146.105,-879.03,0.0,0.0,0.0,0.0,3
-99836.685,-54244.215,-100142.82,-873.99,0.0,0.0,0.0,0.0,3
-99829.35,-54243.36,-100145.565,-877.635,0.0,0.0,0.0,0.0,3
-99846.765,-54245.97,-100153.575,-883.44,0.0,0.0,0.0,0.0,3
-99854.235,-54248.58,-100152.315,-880.29,0.0,0.0,0.0,0.0,3
-99850.185,-54249.705,-100158.39,-887.13,0.0,0.0,0.0,0.0,3
-99845.145,-54251.28,-100161.54,-891.045,0.0,0.0,0.0,0.0,3
-99840.15,-54253.125,-100158.075,-897.21,0.0,0.0,0.0,0.0,3
-99834.525,-54254.025,-100154.61,-892.53,0.0,0.0,0.0,0.0,3
-99843.39,-54251.64,-100165.455,-899.82,0.0,0.0,0.0,0.0,3
-99847.035,-54237.105,-100166.4,-898.515,0.0,0.0,0.0,0.0,3
-99844.2,-54227.835,-100151.1,-885.915,0.0,0.0,0.0,0.0,3
-99835.29,-54227.655,-100133.28,-871.965,0.0,0.0,0.0,0.0,3
-99833.535,-54228.87,-100141.38,-879.66,0.0,0.0,0.0,0.0,3
-99828.54,-54230.22,-100136.97,-880.245,0.0,0.0,0.0,0.0,3
-99820.935,-54231.39,-100135.035,-880.335,0.0,0.0,0.0,0.0,3
-99827.28,-54233.91,-100147.455,-885.78,0.0,0.0,0.0,0.0,3
-99843.705,-54233.19,-100161.72,-889.2,0.0,0.0,0.0,0.0,3
-99871.83,-54236.115,-100190.97,-903.105,0.0,0.0,0.0,0.0,3
-99870.705,-54237.06,-100200.465,-914.805,0.0,0.0,0.0,0.0,3
-99871.425,-54232.965,-100194.57,-919.215,0.0,0.0,0.0,0.0,3
-99832.995,-54229.095,-100130.805,-892.485,0.0,0.0,0.0,0.0,3
-99829.08,-54232.11,-100140.705,-890.595,0.0,0.0,0.0,0.0,3
-99858.87,-54235.845,-100198.44,-907.38,0.0,0.0,0.0,0.0,3
-99876.825,-54239.085,-100209.06,-908.325,0.0,0.0,0.0,0.0,3
-99857.925,-54238.14,-100155.24,-879.12,0.0,0.0,0.0,0.0,3
-99782.73,-54235.62,-100061.865,-833.85,0.0,0.0,0.0,0.0,3
-99770.715,-54235.935,-100074.24,-832.995,0.0,0.0,0.0,0.0,3
-99800.145,-54239.805,-100122.525,-859.365,0.0,0.0,0.0,0.0,3
-99889.875,-54245.295,-100248.3,-927.855,0.0,0.0,0.0,0.0,3
-99963.63,-54247.32,-100309.5,-969.84,0.0,0.0,0.0,0.0,3
-99906.3,-54242.1,-100187.505,-922.095,0.0,0.0,0.0,0.0,3
-99795.555,-54241.11,-100054.53,-860.265,0.0,0.0,0.0,0.0,3
-99765.045,-54243.54,-100081.17,-874.44,0.0,0.0,0.0,0.0,3
-99795.285,-54247.05,-100122.255,-896.22,0.0,0.0,0.0,0.0,3
-99812.025,-54249.21,-100155.24,-910.395,0.0,0.0,0.0,0.0,3
-99829.8,-54252.09,-100173.87,-918.315,0.0,0.0,0.0,0.0,3
-99839.925,-54251.595,-100177.695,-921.825,0.0,0.0,0.0,0.0,3
-99846.63,-54250.47,-100172.97,-913.005,0.0,0.0,0.0,0.0,3
-99858.645,-54249.705,-100162.35,-887.22,0.0,0.0,0.0,0.0,3
-99852.93,-54240.255,-100150.29,-869.445,0.0,0.0,0.0,0.0,3
-99832.77,-54237.69,-100127.79,-856.755,0.0,0.0,0.0,0.0,3
-99799.38,-54240.21,-100105.605,-854.955,0.0,0.0,0.0,0.0,3
-99841.545,-54245.205,-100132.56,-872.46,0.0,0.0,0.0,0.0,3
-99869.67,-54248.625,-100162.35,-894.42,0.0,0.0,0.0,0.0,3
-99864.63,-54247.32,-100172.43,-906.03,0.0,0.0,0.0,0.0,3
-99861.39,-54248.22,-100193.445,-949.005,0.0,0.0,0.0,0.0,3
-99865.485,-54246.375,-100179.855,-935.415,0.0,0.0,0.0,0.0,3
-99819.36,-54247.455,-100189.26,-953.685,0.0,0.0,0.0,0.0,3
-99806.715,-54249.165,-100203.03,-974.565,0.0,0.0,0.0,0.0,3
-99825.435,-54243.36,-100209.285,-966.465,0.0,0.0,0.0,0.0,3
-99842.13,-54240.03,-100203.165,-971.46,0.0,0.0,0.0,0.0,3
-99819.495,-54242.145,-100189.08,-962.28,0.0,0.0,0.0,0.0,3
-99838.395,-54242.64,-100200.96,-960.48,0.0,0.0,0.0,0.0,3
-99848.475,-54243.27,-100188.495,-933.705,0.0,0.0,0.0,0.0,3
-99873.495,-54242.595,-100181.745,-909.675,0.0,0.0,0.0,0.0,3
-99870.705,-54243.36,-100157.13,-875.25,0.0,0.0,0.0,0.0,3
-99850.68,-54244.17,-100131.3,-860.13,0.0,0.0,0.0,0.0,3
-99822.87,-54246.51,-100134.81,-864.765,0.0,0.0,0.0,0.0,3
-99812.25,-54247.86,-100147.59,-890.73,0.0,0.0,0.0,0.0,3
-99814.455,-54243.81,-100160.82,-926.55,0.0,0.0,0.0,0.0,3
-99834.39,-54248.94,-100190.34,-979.29,0.0,0.0,0.0,0.0,3
-99851.625,-54255.78,-100209.195,-1007.595,0.0,0.0,0.0,0.0,3
-99841.14,-54256.995,-100197.99,-980.82,0.0,0.0,0.0,0.0,3
-99839.205,-54260.46,-100221.12,-980.37,0.0,0.0,0.0,0.0,3
-99879.615,-54264.6,-100232.19,-1005.57,0.0,0.0,0.0,0.0,3
-99893.385,-54269.37,-100229.58,-1057.86,0.0,0.0,0.0,0.0,3
-99824.58,-54268.11,-100176.57,-1029.195,0.0,0.0,0.0,0.0,3
-99771.57,-54266.94,-100143.99,-963.99,0.0,0.0,0.0,0.0,3
-99745.425,-54261.72,-100089.18,-899.91,0.0,0.0,0.0,0.0,3
-99772.245,-54252.9,-100059.795,-829.89,0.0,0.0,0.0,0.0,3
-99834.3,-54253.8,-100157.085,-880.695,0.0,0.0,0.0,0.0,3
-99887.4,-54260.37,-100215.09,-922.14,0.0,0.0,0.0,0.0,3
-99898.74,-54262.08,-100252.755,-949.95,0.0,0.0,0.0,0.0,3
-99858.465,-54263.88,-100265.04,-975.465,0.0,0.0,0.0,0.0,3
-99778.455,-54261.72,-100207.62,-947.745,0.0,0.0,0.0,0.0,3
-99722.43,-54258.345,-100088.055,-874.305,0.0,0.0,0.0,0.0,3
-99729.675,-54253.71,-100018.71,-836.865,0.0,0.0,0.0,0.0,3
-99815.22,-54258.57,-100142.415,-922.455,0.0,0.0,0.0,0.0,3
-99904.005,-54263.205,-100211.805,-926.46,0.0,0.0,0.0,0.0,3
-99920.475,-54262.755,-100228.095,-932.4,0.0,0.0,0.0,0.0,3
-99870.615,-54259.74,-100174.455,-913.59,0.0,0.0,0.0,0.0,3
-99838.08,-54260.595,-100136.385,-895.095,0.0,0.0,0.0,0.0,3
-99857.52,-54264.285,-100162.125,-896.175,0.0,0.0,0.0,0.0,3
-99900.45,-54268.56,-100204.92,-914.67,0.0,0.0,0.0,0.0,3
-99920.565,-54268.02,-100211.355,-940.905,0.0,0.0,0.0,0.0,3
-99915.75,-54265.23,-100174.005,-907.605,0.0,0.0,0.0,0.0,3
-99925.695,-54268.2,-100275.75,-971.955,0.0,0.0,0.0,0.0,3
-99977.895,-54272.97,-100352.07,-1030.23,0.0,0.0,0.0,0.0,3
-99877.005,-54264.42,-100196.28,-911.115,0.0,0.0,0.0,0.0,3
-99773.19,-54254.655,-100109.295,-866.07,0.0,0.0,0.0,0.0,3
-99745.47,-54251.145,-100115.64,-877.32,0.0,0.0,0.0,0.0,3
-99792.855,-54255.69,-100164.375,-911.115,0.0,0.0,0.0,0.0,3
-99890.685,-54259.065,-100242.72,-978.57,0.0,0.0,0.0,0.0,3
-99936.81,-54260.955,-100263.87,-1003.455,0.0,0.0,0.0,0.0,3
-99882.09,-54257.715,-100210.005,-940.41,0.0,0.0,0.0,0.0,3
-99883.935,-54259.65,-100225.62,-957.105,0.0,0.0,0.0,0.0,3
-99979.38,-54262.8,-100272.24,-963.765,0.0,0.0,0.0,0.0,3
-99953.865,-54259.785,-100210.5,-913.005,0.0,0.0,0.0,0.0,3
-99835.47,-54253.62,-100138.14,-885.33,0.0,0.0,0.0,0.0,3
-99801.315,-54245.88,-100203.795,-954.09,0.0,0.0,0.0,0.0,3
-99853.11,-54244.485,-100218.105,-955.17,0.0,0.0,0.0,0.0,3
-99764.37,-54241.965,-100113.12,-897.03,0.0,0.0,0.0,0.0,3
-99655.38,-54239.805,-100042.74,-862.65,0.0,0.0,0.0,0.0,3
-99762.57,-54246.015,-100111.365,-873.945,0.0,0.0,0.0,0.0,3
-99890.55,-54250.155,-100198.215,-917.865,0.0,0.0,0.0,0.0,3
-99940.545,-54253.215,-100247.625,-954.72,0.0,0.0,0.0,0.0,3
-99943.245,-54255.87,-100266.615,-958.68,0.0,0.0,0.0,0.0,3
-99925.11,-54256.005,-100236.645,-968.445,0.0,0.0,0.0,0.0,3
-99875.07,-54251.73,-100231.92,-990.9,0.0,0.0,0.0,0.0,3
-99849.51,-54245.205,-100242.27,-1001.925,0.0,0.0,0.0,0.0,3
-99781.155,-54238.68,-100173.78,-942.93,0.0,0.0,0.0,0.0,3
-99795.69,-54239.445,-100130.94,-902.925,0.0,0.0,0.0,0.0,3
-99858.06,-54242.865,-100214.19,-938.295,0.0,0.0,0.0,0.0,3
-99973.395,-54248.49,-100268.01,-935.055,0.0,0.0,0.0,0.0,3
-100024.965,-54253.485,-100284.84,-943.425,0.0,0.0,0.0,0.0,3
-99863.1,-54248.265,-100158.48,-892.845,0.0,0.0,0.0,0.0,3
-99728.685,-54243.09,-100122.165,-909.135,0.0,0.0,0.0,0.0,3
-99813.96,-54246.825,-100159.425,-910.665,0.0,0.0,0.0,0.0,3
-99879.795,-54247.32,-100145.655,-883.035,0.0,0.0,0.0,0.0,3
-99802.575,-54236.25,-100101.24,-866.115,0.0,0.0,0.0,0.0,3
-99756.63,-54233.865,-100154.61,-934.605,0.0,0.0,0.0,0.0,3
-99827.865,-54241.92,-100227.735,-993.915,0.0,0.0,0.0,0.0,3
-99833.445,-54245.61,-100198.755,-912.42,0.0,0.0,0.0,0.0,3
-99848.52,-54251.055,-100195.515,-895.95,0.0,0.0,0.0,0.0,3
-99894.33,-54253.35,-100268.685,-992.34,0.0,0.0,0.0,0.0,3
-99922.365,-54254.16,-100268.64,-994.095,0.0,0.0,0.0,0.0,3
-99912.78,-54252.315,-100215.36,-933.93,0.0,0.0,0.0,0.0,3
-99808.065,-54248.175,-100107.495,-845.955,0.0,0.0,0.0,0.0,3
-99784.035,-54245.7,-100113.435,-845.325,0.0,0.0,0.0,0.0,3
-99850.32,-54246.24,-100156.32,-892.485,0.0,0.0,0.0,0.0,3
-99818.19,-54243.99,-100153.485,-930.69,0.0,0.0,0.0,0.0,3
-99759.195,-54241.785,-100096.245,-894.015,0.0,0.0,0.0,0.0,3
-99797.13,-54242.595,-100118.205,-872.01,0.0,0.0,0.0,0.0,3
-99749.7,-54240.795,-100087.515,-848.79,0.0,0.0,0.0,0.0,3
-99723.465,-54241.155,-100118.115,-900.855,0.0,0.0,0.0,0.0,3
-99825.39,-54247.905,-100251.855,-986.31,0.0,0.0,0.0,0.0,3
-99909.495,-54249.435,-100317.015,-1030.545,0.0,0.0,0.0,0.0,3
-99996.93,-54251.775,-100310.13,-999.765,0.0,0.0,0.0,0.0,3
-100005.66,-54247.59,-100247.67,-948.96,0.0,0.0,0.0,0.0,3
-99982.935,-54240.39,-100239.975,-959.49,0.0,0.0,0.0,0.0,3
-99990.99,-54241.38,-100299.06,-1034.865,0.0,0.0,0.0,0.0,3
-99779.895,-54233.19,-100125.9,-956.88,0.0,0.0,0.0,0.0,3
-99557.73,-54225.27,-100058.76,-867.195,0.0,0.0,0.0,0.0,3
-99670.455,-54230.31,-100100.115,-847.215,0.0,0.0,0.0,0.0,3
-99745.605,-54231.165,-100119.78,-871.65,0.0,0.0,0.0,0.0,3
-99779.76,-54232.425,-100107.765,-822.645,0.0,0.0,0.0,0.0,3
-99812.79,-54232.11,-100118.61,-810.135,0.0,0.0,0.0,0.0,3
-99803.61,-54234.045,-100149.255,-893.925,0.0,0.0,0.0,0.0,3
-99771.93,-54234.9,-100159.83,-943.65,0.0,0.0,0.0,0.0,3
-99892.08,-54237.555,-100219.365,-946.845,0.0,0.0,0.0,0.0,3
-100052.01,-54246.195,-100321.245,-1003.995,0.0,0.0,0.0,0.0,3
-100145.88,-54255.24,-100393.965,-1064.97,0.0,0.0,0.0,0.0,3
-100001.745,-54249.885,-100263.69,-992.385,0.0,0.0,0.0,0.0,3
-99823.14,-54247.32,-100229.13,-964.485,0.0,0.0,0.0,0.0,3
-99797.355,-54248.985,-100245.87,-979.695,0.0,0.0,0.0,0.0,3
-99756.09,-54247.68,-100173.915,-950.4,0.0,0.0,0.0,0.0,3
-99731.16,-54243.18,-100144.17,-941.49,0.0,0.0,0.0,0.0,3
-99819.9,-54246.105,-100162.62,-933.03,0.0,0.0,0.0,0.0,3
-99846.585,-54245.925,-100154.655,-907.875,0.0,0.0,0.0,0.0,3
-99873.18,-54242.37,-100167.84,-916.74,0.0,0.0,0.0,0.0,3
-99947.295,-54245.835,-100236.375,-986.76,0.0,0.0,0.0,0.0,3
-99878.625,-54244.17,-100152.27,-868.32,0.0,0.0,0.0,0.0,3
-99779.715,-54243.18,-100173.24,-875.88,0.0,0.0,0.0,0.0,3
-99789.39,-54246.96,-100236.825,-936.72,0.0,0.0,0.0,0.0,3
-99834.39,-54244.935,-100216.035,-971.82,0.0,0.0,0.0,0.0,3
-99843.075,-54246.33,-100228.365,-998.775,0.0,0.0,0.0,0.0,3
-99826.2,-54246.285,-100242.225,-1020.15,0.0,0.0,0.0,0.0,3
-99852.975,-54246.015,-100248.795,-994.86,0.0,0.0,0.0,0.0,3
-99866.07,-54240.165,-100237.95,-969.12,0.0,0.0,0.0,0.0,3
-99865.035,-54230.85,-100218.825,-948.24,0.0,0.0,0.0,0.0,3
-99935.46,-54227.565,-100228.635,-949.095,0.0,0.0,0.0,0.0,3
-99957.78,-54231.03,-100236.42,-951.21,0.0,0.0,0.0,0.0,3
-99863.865,-54224.055,-100131.075,-878.895,0.0,0.0,0.0,0.0,3
-99799.425,-54223.245,-100206.585,-944.91,0.0,0.0,0.0,0.0,3
-99768.6,-54223.92,-100186.245,-962.595,0.0,0.0,0.0,0.0,3
-99770.085,-54225.495,-100140.48,-914.58,0.0,0.0,0.0,0.0,3
-99855.855,-54227.88,-100192.905,-924.975,0.0,0.0,0.0,0.0,3
-99872.37,-54229.23,-100194.435,-929.34,0.0,0.0,0.0,0.0,3
-99807.12,-54226.755,-100186.245,-922.41,0.0,0.0,0.0,0.0,3
-99844.83,-54219.33,-100195.785,-900.945,0.0,0.0,0.0,0.0,3
-99940.59,-54219.915,-100271.925,-953.235,0.0,0.0,0.0,0.0,3
-99977.49,-54224.325,-100289.115,-998.37,0.0,0.0,0.0,0.0,3
-99865.215,-54222.255,-100201.59,-976.005,0.0,0.0,0.0,0.0,3
-99812.835,-54222.345,-100204.245,-962.1,0.0,0.0,0.0,0.0,3
-99816.12,-54220.23,-100217.79,-960.615,0.0,0.0,0.0,0.0,3
-99835.245,-54219.69,-100182.465,-909.0,0.0,0.0,0.0,0.0,3
-99844.785,-54221.94,-100146.735,-902.565,0.0,0.0,0.0,0.0,3
-99820.53,-54225.585,-100160.64,-882.63,0.0,0.0,0.0,0.0,3
-99809.505,-54228.33,-100209.645,-930.33,0.0,0.0,0.0,0.0,3
-99927.315,-54230.445,-100265.67,-988.92,0.0,0.0,0.0,0.0,3
-100069.29,-54233.955,-100297.665,-1001.655,0.0,0.0,0.0,0.0,3
-99965.16,-54231.93,-100220.715,-966.6,0.0,0.0,0.0,0.0,3
-99757.395,-54226.17,-100181.655,-957.42,0.0,0.0,0.0,0.0,3
-99701.37,-54225.63,-100159.74,-957.465,0.0,0.0,0.0,0.0,3
-99767.79,-54228.69,-100198.665,-1007.145,0.0,0.0,0.0,0.0,3
-99835.38,-54231.39,-100192.32,-963.27,0.0,0.0,0.0,0.0,3
-99800.685,-54228.105,-100181.79,-902.115,0.0,0.0,0.0,0.0,3
-99848.115,-54230.22,-100232.19,-948.555,0.0,0.0,0.0,0.0,3
-99930.69,-54231.075,-100256.22,-967.23,0.0,0.0,0.0,0.0,3
-99969.615,-54224.64,-100254.195,-983.565,0.0,0.0,0.0,0.0,3
-99979.02,-54224.73,-100236.42,-986.04,0.0,0.0,0.0,0.0,3
-99874.755,-54224.19,-100207.215,-959.13,0.0,0.0,0.0,0.0,3
-99814.68,-54223.11,-100184.04,-895.815,0.0,0.0,0.0,0.0,3
-99773.28,-54224.145,-100163.88,-880.065,0.0,0.0,0.0,0.0,3
-99813.42,-54227.52,-100252.035,-966.735,0.0,0.0,0.0,0.0,3
-99836.865,-54227.025,-100198.26,-934.155,0.0,0.0,0.0,0.0,3
-99820.755,-54226.305,-100150.02,-893.07,0.0,0.0,0.0,0.0,3
-99917.595,-54231.93,-100194.075,-919.35,0.0,0.0,0.0,0.0,3
-99879.75,-54229.77,-100201.68,-943.2,0.0,0.0,0.0,0.0,3
-99808.335,-54229.59,-100189.98,-929.655,0.0,0.0,0.0,0.0,3
-99912.375,-54237.15,-100255.68,-963.405,0.0,0.0,0.0,0.0,3
-99821.88,-54233.37,-100129.635,-867.555,0.0,0.0,0.0,0.0,3
-99687.15,-54229.995,-100146.645,-890.37,0.0,0.0,0.0,0.0,3
-99781.875,-54235.845,-100216.44,-938.34,0.0,0.0,0.0,0.0,3
-99816.615,-54234.675,-100192.455,-940.77,0.0,0.0,0.0,0.0,3
-99856.71,-54235.98,-100188.27,-963.405,0.0,0.0,0.0,0.0,3
-99904.5,-54237.78,-100240.56,-1004.715,0.0,0.0,0.0,0.0,3
-99931.905,-54240.57,-100281.42,-1002.42,0.0,0.0,0.0,0.0,3
-99948.69,-54240.795,-100297.305,-973.845,0.0,0.0,0.0,0.0,3
-99975.87,-54233.595,-100309.905,-1006.29,0.0,0.0,0.0,0.0,3
-99848.205,-54223.83,-100183.095,-933.525,0.0,0.0,0.0,0.0,3
-99723.78,-54220.815,-100079.64,-890.46,0.0,0.0,0.0,0.0,3
-99755.37,-54228.33,-100192.86,-974.43,0.0,0.0,0.0,0.0,3
-99846.72,-54232.74,-100173.6,-932.58,0.0,0.0,0.0,0.0,3
-99822.42,-54229.545,-100124.19,-886.275,0.0,0.0,0.0,0.0,3
-99817.11,-54231.84,-100174.95,-909.765,0.0,0.0,0.0,0.0,3
-99850.905,-54233.685,-100188.765,-918.495,0.0,0.0,0.0,0.0,3
-99825.165,-54236.16,-100267.605,-966.465,0.0,0.0,0.0,0.0,3
-99842.22,-54233.64,-100275.21,-960.48,0.0,0.0,0.0,0.0,3
-99910.98,-54226.215,-100289.88,-974.43,0.0,0.0,0.0,0.0,3
-99969.39,-54220.365,-100239.435,-960.48,0.0,0.0,0.0,0.0,3
-99943.11,-54221.895,-100270.08,-988.605,0.0,0.0,0.0,0.0,3
-99884.34,-54222.57,-100245.78,-1007.505,0.0,0.0,0.0,0.0,3
-99871.38,-54221.94,-100171.44,-953.37,0.0,0.0,0.0,0.0,3
-99849.15,-54222.03,-100218.195,-972.855,0.0,0.0,0.0,0.0,3
-99791.595,-54222.255,-100237.32,-1005.57,0.0,0.0,0.0,0.0,3
-99787.185,-54218.655,-100186.155,-956.34,0.0,0.0,0.0,0.0,3
-99954.18,-54224.865,-100232.64,-957.645,0.0,0.0,0.0,0.0,3
-100005.255,-54226.44,-100244.79,-957.78,0.0,0.0,0.0,0.0,3
-99820.17,-54214.335,-100154.43,-893.655,0.0,0.0,0.0,0.0,3
-99796.545,-54217.71,-100231.065,-951.57,0.0,0.0,0.0,0.0,3
-99774.72,-54218.25,-100175.265,-941.94,0.0,0.0,0.0,0.0,3
-99786.69,-54218.025,-100197.27,-960.795,0.0,0.0,0.0,0.0,3
-99832.365,-54220.545,-100248.795,-977.67,0.0,0.0,0.0,0.0,3
-99894.06,-54223.155,-100301.805,-1015.695,0.0,0.0,0.0,0.0,3
-99970.83,-54223.335,-100217.34,-950.085,0.0,0.0,0.0,0.0,3
-99847.125,-54218.655,-100145.475,-906.84,0.0,0.0,0.0,0.0,3
-99722.52,-54216.945,-100161.585,-898.245,0.0,0.0,0.0,0.0,3
-99859.545,-54220.275,-100204.38,-880.29,0.0,0.0,0.0,0.0,3
-99916.875,-54213.345,-100201.95,-875.7,0.0,0.0,0.0,0.0,3
-99724.23,-54199.755,-100080.72,-846.225,0.0,0.0,0.0,0.0,3
-99692.64,-54200.835,-100123.74,-874.17,0.0,0.0,0.0,0.0,3
-99834.66,-54208.35,-100281.375,-1008.81,0.0,0.0,0.0,0.0,3
-99906.75,-54212.445,-100334.79,-1082.745,0.0,0.0,0.0,0.0,3
-99957.195,-54215.145,-100316.565,-1052.64,0.0,0.0,0.0,0.0,3
-99987.075,-54218.745,-100303.65,-1010.34,0.0,0.0,0.0,0.0,3
-99999.72,-54220.32,-100283.805,-994.545,0.0,0.0,0.0,0.0,3
-99915.93,-54218.61,-100228.545,-953.64,0.0,0.0,0.0,0.0,3
-99798.795,-54214.605,-100200.33,-935.64,0.0,0.0,0.0,0.0,3
-99779.13,-54210.195,-100179.855,-920.16,0.0,0.0,0.0,0.0,3
-99802.665,-54209.295,-100150.02,-903.555,0.0,0.0,0.0,0.0,3
-99761.175,-54210.87,-100125.72,-897.57,0.0,0.0,0.0,0.0,3
-99782.73,-54213.525,-100172.115,-939.375,0.0,0.0,0.0,0.0,3
-99926.415,-54221.22,-100239.885,-976.995,0.0,0.0,0.0,0.0,3
-99885.15,-54222.03,-100248.84,-995.13,0.0,0.0,0.0,0.0,3
-99861.165,-54226.17,-100303.47,-1014.795,0.0,0.0,0.0,0.0,3
-99961.92,-54229.14,-100267.02,-953.64,0.0,0.0,0.0,0.0,3
-99938.61,-54228.645,-100228.185,-934.65,0.0,0.0,0.0,0.0,3
-99806.85,-54221.04,-100183.05,-932.265,0.0,0.0,0.0,0.0,3
-99789.57,-54221.67,-100206.54,-981.855,0.0,0.0,0.0,0.0,3
-99891.72,-54226.665,-100270.935,-1009.71,0.0,0.0,0.0,0.0,3
-99971.325,-54233.91,-100315.935,-996.12,0.0,0.0,0.0,0.0,3
-100002.735,-54236.07,-100236.465,-926.64,0.0,0.0,0.0,0.0,3
-99745.965,-54227.295,-100050.075,-825.84,0.0,0.0,0.0,0.0,3
-99583.29,-54221.805,-100089.99,-878.535,0.0,0.0,0.0,0.0,3
-99707.535,-54228.915,-100238.67,-986.76,0.0,0.0,0.0,0.0,3
-99796.77,-54232.74,-100248.795,-1005.795,0.0,0.0,0.0,0.0,3
-99842.4,-54233.505,-100234.845,-971.01,0.0,0.0,0.0,0.0,3
-99932.13,-54240.705,-100243.44,-971.28,0.0,0.0,0.0,0.0,3
-100078.83,-54246.33,-100348.47,-1028.7,0.0,0.0,0.0,0.0,3
-100017.54,-54245.925,-100351.17,-1034.325,0.0,0.0,0.0,0.0,3
-99753.84,-54235.53,-100135.89,-915.66,0.0,0.0,0.0,0.0,3
-99754.92,-54238.095,-100160.055,-929.295,0.0,0.0,0.0,0.0,3
-99775.755,-54240.615,-100162.755,-906.57,0.0,0.0,0.0,0.0,3
-99822.24,-54249.255,-100301.175,-984.645,0.0,0.0,0.0,0.0,3
-99911.88,-54255.42,-100322.055,-994.23,0.0,0.0,0.0,0.0,3
-99953.01,-54255.555,-100273.32,-1008.09,0.0,0.0,0.0,0.0,3
-99921.645,-54254.745,-100197.855,-971.235,0.0,0.0,0.0,0.0,3
-99835.92,-54250.92,-100182.555,-935.28,0.0,0.0,0.0,0.0,3
-99739.935,-54239.265,-100118.025,-862.56,0.0,0.0,0.0,0.0,3
-99798.03,-54236.88,-100174.995,-908.865,0.0,0.0,0.0,0.0,3
-99947.205,-54245.205,-100285.29,-1018.755,0.0,0.0,0.0,0.0,3
-99988.02,-54245.655,-100288.89,-1015.245,0.0,0.0,0.0,0.0,3
-99778.68,-54231.705,-100131.3,-924.03,0.0,0.0,0.0,0.0,3
-99740.07,-54231.57,-100236.42,-979.515,0.0,0.0,0.0,0.0,3
-99821.79,-54232.74,-100209.645,-905.49,0.0,0.0,0.0,0.0,3
-100011.465,-54239.715,-100301.94,-1002.87,0.0,0.0,0.0,0.0,3
-99994.095,-54241.965,-100337.805,-1054.62,0.0,0.0,0.0,0.0,3
-99806.715,-54232.965,-100257.39,-1003.365,0.0,0.0,0.0,0.0,3
-99794.745,-54230.13,-100250.325,-998.28,0.0,0.0,0.0,0.0,3
-99822.42,-54226.71,-100193.85,-945.945,0.0,0.0,0.0,0.0,3
-99944.415,-54232.47,-100203.3,-918.855,0.0,0.0,0.0,0.0,3
-99859.14,-54231.165,-100182.195,-920.7,0.0,0.0,0.0,0.0,3
-99771.795,-54230.13,-100142.82,-903.825,0.0,0.0,0.0,0.0,3
-99770.355,-54230.49,-100172.07,-912.87,0.0,0.0,0.0,0.0,3
-99804.105,-54235.215,-100243.845,-949.455,0.0,0.0,0.0,0.0,3
-99883.845,-54242.19,-100302.93,-1007.46,0.0,0.0,0.0,0.0,3
-99887.04,-54245.565,-100277.145,-1032.165,0.0,0.0,0.0,0.0,3
-99899.145,-54245.565,-100278.765,-1007.235,0.0,0.0,0.0,0.0,3
-100025.235,-54240.165,-100338.3,-1007.595,0.0,0.0,0.0,0.0,3
-100078.065,-54236.565,-100355.985,-1016.775,0.0,0.0,0.0,0.0,3
-99826.245,-54229.86,-100237.815,-959.94,0.0,0.0,0.0,0.0,3
-99715.095,-54228.69,-100202.895,-970.2,0.0,0.0,0.0,0.0,3
-99754.875,-54231.57,-100193.265,-958.905,0.0,0.0,0.0,0.0,3
-99830.88,-54234.315,-100205.685,-958.32,0.0,0.0,0.0,0.0,3
-99937.395,-54240.705,-100268.37,-989.19,0.0,0.0,0.0,0.0,3
-99945.18,-54240.84,-100237.68,-942.03,0.0,0.0,0.0,0.0,3
-99819.855,-54233.82,-100152.045,-891.765,0.0,0.0,0.0,0.0,3
-99824.715,-54235.62,-100216.305,-929.97,0.0,0.0,0.0,0.0,3
-99809.055,-54225.045,-100196.685,-919.845,0.0,0.0,0.0,0.0,3
-99842.355,-54218.79,-100225.89,-991.845,0.0,0.0,0.0,0.0,3
-99842.67,-54220.005,-100254.645,-1013.265,0.0,0.0,0.0,0.0,3
-99911.115,-54223.2,-100285.38,-1019.115,0.0,0.0,0.0,0.0,3
-99980.28,-54227.745,-100274.31,-980.37,0.0,0.0,0.0,0.0,3
-99877.59,-54222.75,-100179.27,-916.785,0.0,0.0,0.0,0.0,3
-99779.94,-54220.455,-100171.98,-901.71,0.0,0.0,0.0,0.0,3
-99793.89,-54223.38,-100239.795,-982.35,0.0,0.0,0.0,0.0,3
-99817.38,-54224.865,-100239.525,-991.485,0.0,0.0,0.0,0.0,3
-99871.29,-54224.955,-100234.17,-983.25,0.0,0.0,0.0,0.0,3
-99890.1,-54218.835,-100264.095,-966.33,0.0,0.0,0.0,0.0,3
-99883.215,-54215.055,-100262.43,-961.74,0.0,0.0,0.0,0.0,3
-99896.31,-54217.755,-100255.905,-1006.2,0.0,0.0,0.0,0.0,3
-100009.935,-54222.615,-100326.465,-1063.035,0.0,0.0,0.0,0.0,3
-99895.59,-54217.485,-100199.43,-968.22,0.0,0.0,0.0,0.0,3
-99682.065,-54208.125,-100119.87,-913.545,0.0,0.0,0.0,0.0,3
-99787.545,-54216.945,-100284.39,-988.29,0.0,0.0,0.0,0.0,3
-99876.24,-54217.71,-100319.895,-992.61,0.0,0.0,0.0,0.0,3
-99839.385,-54213.345,-100211.715,-956.205,0.0,0.0,0.0,0.0,3
-99848.25,-54213.84,-100220.895,-971.955,0.0,0.0,0.0,0.0,3
-99891.945,-54216.72,-100301.535,-1014.615,0.0,0.0,0.0,0.0,3
-99897.615,-54218.295,-100301.445,-1008.315,0.0,0.0,0.0,0.0,3
-99880.74,-54217.89,-100220.22,-946.755,0.0,0.0,0.0,0.0,3
-99910.125,-54214.83,-100202.85,-902.655,0.0,0.0,0.0,0.0,3
-99930.915,-54212.715,-100210.14,-910.575,0.0,0.0,0.0,0.0,3
-99837.9,-54209.655,-100202.22,-946.17,0.0,0.0,0.0,0.0,3
-99873.315,-54215.64,-100288.845,-1038.78,0.0,0.0,0.0,0.0,3
-99874.53,-54221.265,-100277.01,-1032.615,0.0,0.0,0.0,0.0,3
-99887.76,-54226.395,-100237.77,-976.05,0.0,0.0,0.0,0.0,3
-99822.195,-54225.54,-100201.635,-953.865,0.0,0.0,0.0,0.0,3
-99842.58,-54222.57,-100213.2,-947.97,0.0,0.0,0.0,0.0,3
-99815.76,-54217.26,-100163.7,-908.055,0.0,0.0,0.0,0.0,3
-99738.495,-54214.065,-100137.78,-906.795,0.0,0.0,0.0,0.0,3
-99782.685,-54218.295,-100233.72,-985.455,0.0,0.0,0.0,0.0,3
-99874.17,-54224.19,-100287.63,-1013.085,0.0,0.0,0.0,0.0,3
-99903.735,-54224.82,-100305.945,-1029.015,0.0,0.0,0.0,0.0,3
-99978.48,-54228.69,-100337.31,-1033.515,0.0,0.0,0.0,0.0,3
-100074.87,-54231.03,-100345.185,-1025.325,0.0,0.0,0.0,0.0,3
-99979.29,-54227.115,-100295.91,-997.38,0.0,0.0,0.0,0.0,3
-99781.695,-54218.475,-100207.215,-935.415,0.0,0.0,0.0,0.0,3
-99706.185,-54207.27,-100146.105,-890.325,0.0,0.0,0.0,0.0,3
-99731.655,-54203.445,-100173.645,-920.43,0.0,0.0,0.0,0.0,3
-99812.295,-54208.98,-100244.34,-1007.37,0.0,0.0,0.0,0.0,3
-99846.045,-54212.175,-100256.445,-1047.105,0.0,0.0,0.0,0.0,3
-99854.595,-54212.49,-100218.87,-970.92,0.0,0.0,0.0,0.0,3
-99917.325,-54213.435,-100239.39,-947.43,0.0,0.0,0.0,0.0,3
-99972.63,-54218.745,-100328.04,-1011.15,0.0,0.0,0.0,0.0,3
-99939.645,-54219.285,-100316.52,-1003.59,0.0,0.0,0.0,0.0,3
-99846.18,-54217.98,-100273.5,-999.225,0.0,0.0,0.0,0.0,3
-99831.195,-54214.47,-100242.045,-974.205,0.0,0.0,0.0,0.0,3
-99875.025,-54206.1,-100228.365,-936.855,0.0,0.0,0.0,0.0,3
-99889.65,-54202.59,-100218.105,-924.48,0.0,0.0,0.0,0.0,3
-99942.12,-54208.17,-100282.275,-980.64,0.0,0.0,0.0,0.0,3
-99924.615,-54209.52,-100294.335,-1012.5,0.0,0.0,0.0,0.0,3
-99853.38,-54208.53,-100237.995,-1030.77,0.0,0.0,0.0,0.0,3
-99665.82,-54198.27,-100110.24,-931.86,0.0,0.0,0.0,0.0,3
-99835.92,-54205.74,-100203.345,-938.655,0.0,0.0,0.0,0.0,3
-99879.615,-54208.53,-100249.515,-968.445,0.0,0.0,0.0,0.0,3
-99792.405,-54205.245,-100246.86,-962.1,0.0,0.0,0.0,0.0,3
-99848.205,-54207.36,-100282.635,-954.09,0.0,0.0,0.0,0.0,3
-99911.205,-54205.29,-100291.86,-1003.905,0.0,0.0,0.0,0.0,3
-99985.815,-54207.54,-100298.565,-986.715,0.0,0.0,0.0,0.0,3
-100016.955,-54213.975,-100297.98,-1000.17,0.0,0.0,0.0,0.0,3
-99854.55,-54210.87,-100178.64,-975.915,0.0,0.0,0.0,0.0,3
-99751.815,-54215.595,-100272.87,-1034.775,0.0,0.0,0.0,0.0,3
-99822.06,-54217.395,-100301.58,-998.415,0.0,0.0,0.0,0.0,3
-99871.02,-54218.205,-100297.98,-984.375,0.0,0.0,0.0,0.0,3
-99835.65,-54214.38,-100189.215,-946.53,0.0,0.0,0.0,0.0,3
-99806.805,-54217.755,-100180.17,-940.32,0.0,0.0,0.0,0.0,3
-99910.845,-54223.155,-100253.295,-978.705,0.0,0.0,0.0,0.0,3
-99970.47,-54229.23,-100290.42,-991.89,0.0,0.0,0.0,0.0,3
-99704.43,-54219.195,-100177.335,-943.515,0.0,0.0,0.0,0.0,3
-99618.435,-54213.525,-100120.59,-883.665,0.0,0.0,0.0,0.0,3
-99837.72,-54225.27,-100233.09,-912.06,0.0,0.0,0.0,0.0,3
-100021.68,-54239.085,-100351.485,-1045.53,0.0,0.0,0.0,0.0,3
-100090.17,-54241.425,-100363.995,-1079.505,0.0,0.0,0.0,0.0,3
-99932.625,-54237.33,-100293.705,-1053.99,0.0,0.0,0.0,0.0,3
-99774.99,-54231.66,-100251.405,-1018.845,0.0,0.0,0.0,0.0,3
-99789.615,-54231.615,-100217.925,-960.03,0.0,0.0,0.0,0.0,3
-99826.065,-54231.93,-100203.03,-971.01,0.0,0.0,0.0,0.0,3
-99856.44,-54226.125,-100264.77,-957.78,0.0,0.0,0.0,0.0,3
-99891.63,-54225.225,-100295.685,-993.015,0.0,0.0,0.0,0.0,3
-99979.83,-54233.28,-100341.99,-1061.505,0.0,0.0,0.0,0.0,3
-100020.915,-54235.8,-100309.59,-1029.87,0.0,0.0,0.0,0.0,3
-99835.965,-54231.885,-100228.23,-980.415,0.0,0.0,0.0,0.0,3
-99804.465,-54234.18,-100260.27,-998.505,0.0,0.0,0.0,0.0,3
-99813.33,-54237.105,-100261.215,-1024.02,0.0,0.0,0.0,0.0,3
-99836.325,-54240.12,-100289.925,-995.22,0.0,0.0,0.0,0.0,3
-99889.38,-54242.91,-100243.215,-924.03,0.0,0.0,0.0,0.0,3
-99911.205,-54243.09,-100244.295,-933.255,0.0,0.0,0.0,0.0,3
-99861.84,-54237.555,-100194.66,-925.47,0.0,0.0,0.0,0.0,3
-99826.245,-54236.43,-100181.97,-932.895,0.0,0.0,0.0,0.0,3
-99903.42,-54245.43,-100239.48,-978.615,0.0,0.0,0.0,0.0,3
-99832.545,-54245.97,-100277.82,-1041.21,0.0,0.0,0.0,0.0,3
-99790.02,-54244.53,-100287.855,-1064.655,0.0,0.0,0.0,0.0,3
-99888.795,-54246.555,-100249.875,-994.68,0.0,0.0,0.0,0.0,3
-99970.47,-54253.44,-100290.105,-973.35,0.0,0.0,0.0,0.0,3
-99915.03,-54254.16,-100317.555,-996.03,0.0,0.0,0.0,0.0,3
-99764.82,-54250.335,-100198.62,-923.445,0.0,0.0,0.0,0.0,3
-99809.595,-54251.1,-100228.005,-957.69,0.0,0.0,0.0,0.0,3
-99887.22,-54248.805,-100286.865,-1010.07,0.0,0.0,0.0,0.0,3
-99887.985,-54245.565,-100296.18,-1031.445,0.0,0.0,0.0,0.0,3
-99945.405,-54249.345,-100308.87,-1024.47,0.0,0.0,0.0,0.0,3
-99996.93,-54255.6,-100309.995,-1020.465,0.0,0.0,0.0,0.0,3
-99955.395,-54255.645,-100277.415,-998.55,0.0,0.0,0.0,0.0,3
-99768.735,-54247.005,-100175.31,-925.92,0.0,0.0,0.0,0.0,3
-99686.925,-54246.645,-100195.38,-920.205,0.0,0.0,0.0,0.0,3
-99800.01,-54251.28,-100238.355,-912.87,0.0,0.0,0.0,0.0,3
-99843.12,-54255.69,-100276.74,-997.56,0.0,0.0,0.0,0.0,3
-99896.04,-54257.58,-100244.475,-981.405,0.0,0.0,0.0,0.0,3
-99874.08,-54255.42,-100252.305,-1021.995,0.0,0.0,0.0,0.0,3
-99856.665,-54255.195,-100263.15,-1018.44,0.0,0.0,0.0,0.0,3
-99842.895,-54260.865,-100294.065,-1021.995,0.0,0.0,0.0,0.0,3
-99867.78,-54262.305,-100292.76,-992.115,0.0,0.0,0.0,0.0,3
-99898.02,-54264.825,-100311.165,-1016.55,0.0,0.0,0.0,0.0,3
-99844.2,-54261.945,-100260.855,-1022.13,0.0,0.0,0.0,0.0,3
-99902.295,-54261.765,-100265.13,-956.565,0.0,0.0,0.0,0.0,3
-99970.2,-54261.945,-100220.22,-922.77,0.0,0.0,0.0,0.0,3
-99832.68,-54259.515,-100160.28,-899.28,0.0,0.0,0.0,0.0,3
-99738.72,-54261.9,-100242.945,-1000.17,0.0,0.0,0.0,0.0,3
-99844.74,-54265.545,-100318.77,-1044.18,0.0,0.0,0.0,0.0,3
-99990.27,-54272.025,-100355.265,-1055.97,0.0,0.0,0.0,0.0,3
-100002.015,-54273.87,-100320.885,-1034.46,0.0,0.0,0.0,0.0,3
-99855.855,-54270.315,-100243.8,-999.495,0.0,0.0,0.0,0.0,3
-99731.34,-54267.255,-100183.185,-950.625,0.0,0.0,0.0,0.0,3
-99764.73,-54268.605,-100257.57,-1010.7,0.0,0.0,0.0,0.0,3
-99825.39,-54270.63,-100246.815,-1011.915,0.0,0.0,0.0,0.0,3
-99902.745,-54276.795,-100276.29,-984.375,0.0,0.0,0.0,0.0,3
-99936.27,-54281.925,-100295.505,-1010.385,0.0,0.0,0.0,0.0,3
-99912.69,-54278.775,-100292.355,-1005.255,0.0,0.0,0.0,0.0,3
-99928.89,-54274.545,-100301.94,-957.87,0.0,0.0,0.0,0.0,3
-99871.695,-54269.595,-100252.98,-913.86,0.0,0.0,0.0,0.0,3
-99781.38,-54268.605,-100253.475,-968.13,0.0,0.0,0.0,0.0,3
-99909.315,-54276.57,-100313.055,-1031.805,0.0,0.0,0.0,0.0,3
-100060.65,-54284.49,-100345.365,-1033.245,0.0,0.0,0.0,0.0,3
-100001.745,-54281.565,-100291.905,-1009.485,0.0,0.0,0.0,0.0,3
-99783.045,-54273.645,-100221.615,-978.57,0.0,0.0,0.0,0.0,3
-99739.665,-54272.34,-100274.67,-1003.545,0.0,0.0,0.0,0.0,3
-99808.2,-54271.98,-100238.175,-956.07,0.0,0.0,0.0,0.0,3
-99797.22,-54268.695,-100219.41,-931.68,0.0,0.0,0.0,0.0,3
-99785.07,-54261.405,-100232.865,-983.43,0.0,0.0,0.0,0.0,3
-99869.13,-54263.7,-100258.245,-1033.83,0.0,0.0,0.0,0.0,3
-100042.335,-54275.895,-100342.8,-1053.135,0.0,0.0,0.0,0.0,3
-100074.96,-54280.125,-100367.865,-1057.815,0.0,0.0,0.0,0.0,3
-99844.83,-54272.925,-100237.545,-950.085,0.0,0.0,0.0,0.0,3
-99737.055,-54269.415,-100198.17,-929.34,0.0,0.0,0.0,0.0,3
-99754.74,-54275.49,-100267.92,-996.39,0.0,0.0,0.0,0.0,3
-99806.895,-54277.245,-100270.305,-962.73,0.0,0.0,0.0,0.0,3
-99853.425,-54278.955,-100282.14,-1002.06,0.0,0.0,0.0,0.0,3
-99940.815,-54281.745,-100333.44,-1084.77,0.0,0.0,0.0,0.0,3
-99971.19,-54273.915,-100304.055,-1041.57,0.0,0.0,0.0,0.0,3
-99875.16,-54267.48,-100269.45,-1010.88,0.0,0.0,0.0,0.0,3
-99896.985,-54272.16,-100323.495,-1026.99,0.0,0.0,0.0,0.0,3
-99918.81,-54274.635,-100297.845,-992.205,0.0,0.0,0.0,0.0,3
-99797.895,-54271.35,-100214.055,-978.03,0.0,0.0,0.0,0.0,3
-99801.315,-54272.115,-100258.65,-1009.44,0.0,0.0,0.0,0.0,3
-99897.435,-54276.705,-100318.005,-1029.42,0.0,0.0,0.0,0.0,3
-99882.585,-54274.545,-100264.995,-980.82,0.0,0.0,0.0,0.0,3
-99856.215,-54277.47,-100304.19,-1015.47,0.0,0.0,0.0,0.0,3
-99890.055,-54276.66,-100269.54,-995.58,0.0,0.0,0.0,0.0,3
-99882.18,-54266.13,-100252.71,-996.57,0.0,0.0,0.0,0.0,3
-99933.93,-54266.895,-100385.505,-1084.635,0.0,0.0,0.0,0.0,3
-99929.43,-54269.19,-100386.765,-1042.11,0.0,0.0,0.0,0.0,3
-99885.42,-54270.855,-100279.485,-992.97,0.0,0.0,0.0,0.0,3
-99866.655,-54273.015,-100216.395,-980.685,0.0,0.0,0.0,0.0,3
-99816.525,-54273.24,-100234.395,-995.715,0.0,0.0,0.0,0.0,3
-99787.455,-54271.845,-100229.67,-976.86,0.0,0.0,0.0,0.0,3
-99874.44,-54273.015,-100248.255,-958.905,0.0,0.0,0.0,0.0,3
-100067.715,-54279.0,-100239.615,-927.045,0.0,0.0,0.0,0.0,3
-100017.27,-54279.495,-100286.64,-967.545,0.0,0.0,0.0,0.0,3
-99770.265,-54269.73,-100325.565,-1041.255,0.0,0.0,0.0,0.0,3
-99822.285,-54269.37,-100327.95,-1051.74,0.0,0.0,0.0,0.0,3
-99835.965,-54271.62,-100267.74,-998.1,0.0,0.0,0.0,0.0,3
-99780.93,-54270.18,-100200.555,-964.98,0.0,0.0,0.0,0.0,3
-99740.475,-54268.47,-100152.315,-919.035,0.0,0.0,0.0,0.0,3
-99860.76,-54275.58,-100260.765,-970.605,0.0,0.0,0.0,0.0,3
-99848.43,-54281.79,-100296.27,-1032.165,0.0,0.0,0.0,0.0,3
-99842.535,-54283.5,-100282.68,-1024.605,0.0,0.0,0.0,0.0,3
-99953.595,-54288.54,-100316.79,-1000.755,0.0,0.0,0.0,0.0,3
-99988.02,-54292.185,-100351.935,-1046.43,0.0,0.0,0.0,0.0,3
-99976.185,-54290.88,-100345.995,-1058.355,0.0,0.0,0.0,0.0,3
-100026.945,-54291.06,-100367.865,-1040.175,0.0,0.0,0.0,0.0,3
-99940.545,-54289.395,-100282.05,-999.315,0.0,0.0,0.0,0.0,3
-99702.09,-54286.47,-100251.405,-1005.525,0.0,0.0,0.0,0.0,3
-99732.78,-54290.97,-100321.47,-1030.59,0.0,0.0,0.0,0.0,3
-99836.37,-54295.515,-100304.73,-1022.445,0.0,0.0,0.0,0.0,3
-99942.885,-54301.23,-100304.19,-1015.02,0.0,0.0,0.0,0.0,3
-100060.245,-54308.88,-100388.745,-1078.875,0.0,0.0,0.0,0.0,3
-100015.245,-54306.855,-100324.665,-1031.895,0.0,0.0,0.0,0.0,3
-99875.7,-54296.775,-100193.13,-927.54,0.0,0.0,0.0,0.0,3
-99680.94,-54283.68,-100101.87,-877.14,0.0,0.0,0.0,0.0,3
-99701.235,-54285.165,-100198.395,-957.51,0.0,0.0,0.0,0.0,3
-99856.17,-54299.925,-100358.775,-1049.175,0.0,0.0,0.0,0.0,3
-99897.615,-54306.945,-100372.05,-1055.565,0.0,0.0,0.0,0.0,3
-99920.295,-54309.24,-100352.34,-1046.295,0.0,0.0,0.0,0.0,3
-99934.92,-54308.655,-100319.04,-1029.51,0.0,0.0,0.0,0.0,3
-99935.37,-54311.85,-100328.94,-1044.9,0.0,0.0,0.0,0.0,3
-99871.65,-54309.78,-100284.12,-1039.545,0.0,0.0,0.0,0.0,3
-99835.29,-54308.745,-100249.65,-991.215,0.0,0.0,0.0,0.0,3
-99871.065,-54308.88,-100258.065,-981.27,0.0,0.0,0.0,0.0,3
-99900.27,-54306.945,-100311.795,-1048.68,0.0,0.0,0.0,0.0,3
-99984.465,-54305.145,-100334.385,-1050.39,0.0,0.0,0.0,0.0,3
-99939.735,-54303.705,-100299.915,-1015.605,0.0,0.0,0.0,0.0,3
-99821.52,-54304.785,-100250.505,-971.28,0.0,0.0,0.0,0.0,3
-99826.155,-54310.68,-100289.745,-975.33,0.0,0.0,0.0,0.0,3
-99874.845,-54312.165,-100312.695,-1014.21,0.0,0.0,0.0,0.0,3
-99895.32,-54311.175,-100304.28,-1032.48,0.0,0.0,0.0,0.0,3
-99968.625,-54312.525,-100341.9,-1044.315,0.0,0.0,0.0,0.0,3
-99923.715,-54309.195,-100261.035,-1013.805,0.0,0.0,0.0,0.0,3
-99933.885,-54308.295,-100270.44,-1007.415,0.0,0.0,0.0,0.0,3
-99819.09,-54297.81,-100242.945,-958.275,0.0,0.0,0.0,0.0,3
-99782.505,-54295.875,-100351.395,-996.03,0.0,0.0,0.0,0.0,3
-99879.66,-54300.015,-100370.745,-1042.02,0.0,0.0,0.0,0.0,3
-99894.33,-54298.8,-100287.27,-1045.08,0.0,0.0,0.0,0.0,3
-99901.53,-54301.77,-100312.065,-1041.84,0.0,0.0,0.0,0.0,3
-99922.5,-54302.715,-100306.17,-1021.365,0.0,0.0,0.0,0.0,3
-99901.62,-54303.075,-100285.695,-1002.105,0.0,0.0,0.0,0.0,3
-99887.13,-54306.045,-100353.285,-1014.93,0.0,0.0,0.0,0.0,3
-99894.915,-54311.085,-100332.36,-1007.91,0.0,0.0,0.0,0.0,3
-99884.97,-54307.755,-100198.125,-965.25,0.0,0.0,0.0,0.0,3
-99926.505,-54301.815,-100267.695,-1024.47,0.0,0.0,0.0,0.0,3
-99936.9,-54298.62,-100297.44,-1027.305,0.0,0.0,0.0,0.0,3
-99853.155,-54295.875,-100275.48,-1010.7,0.0,0.0,0.0,0.0,3
-99886.725,-54300.555,-100376.73,-1066.77,0.0,0.0,0.0,0.0,3
-99922.365,-54303.48,-100371.6,-1050.66,0.0,0.0,0.0,0.0,3
-99862.02,-54298.665,-100260.765,-985.68,0.0,0.0,0.0,0.0,3
-99838.44,-54298.17,-100208.745,-946.845,0.0,0.0,0.0,0.0,3
-99865.08,-54301.05,-100199.43,-942.525,0.0,0.0,0.0,0.0,3
-99952.785,-54310.995,-100280.52,-996.93,0.0,0.0,0.0,0.0,3
-100107.0,-54320.985,-100406.745,-1062.495,0.0,0.0,0.0,0.0,3
-100066.275,-54319.59,-100372.455,-1052.235,0.0,0.0,0.0,0.0,3
-99782.91,-54309.825,-100236.555,-1006.74,0.0,0.0,0.0,0.0,3
-99713.43,-54308.745,-100246.815,-1015.2,0.0,0.0,0.0,0.0,3
-99793.305,-54312.48,-100272.78,-1061.82,0.0,0.0,0.0,0.0,3
-99843.84,-54316.665,-100282.905,-1041.705,0.0,0.0,0.0,0.0,3
-99863.28,-54316.215,-100268.415,-997.38,0.0,0.0,0.0,0.0,3
-99905.445,-54320.58,-100333.755,-1021.815,0.0,0.0,0.0,0.0,3
-99915.255,-54323.64,-100352.88,-1038.78,0.0,0.0,0.0,0.0,3
-99897.615,-54324.855,-100335.24,-1037.115,0.0,0.0,0.0,0.0,3
-99891.09,-54324.495,-100322.865,-1030.995,0.0,0.0,0.0,0.0,3
-99892.71,-54322.245,-100317.69,-1028.115,0.0,0.0,0.0,0.0,3
-99897.795,-54321.57,-100323.63,-1029.465,0.0,0.0,0.0,0.0,3
-99897.66,-54323.37,-100346.67,-1027.575,0.0,0.0,0.0,0.0,3
-99896.04,-54320.535,-100343.79,-1024.47,0.0,0.0,0.0,0.0,3
-99894.33,-54319.5,-100280.61,-1016.55,0.0,0.0,0.0,0.0,3
-99893.34,-54319.005,-100277.505,-1022.58,0.0,0.0,0.0,0.0,3
-99888.48,-54319.905,-100295.865,-1018.98,0.0,0.0,0.0,0.0,3
-99883.71,-54320.04,-100285.74,-1003.77,0.0,0.0,0.0,0.0,3
-99895.365,-54321.795,-100313.145,-1030.41,0.0,0.0,0.0,0.0,3
-99905.94,-54321.93,-100323.405,-1036.485,0.0,0.0,0.0,0.0,3
-99891.18,-54314.55,-100306.665,-1016.46,0.0,0.0,0.0,0.0,3
-99888.615,-54309.87,-100295.46,-1010.655,0.0,0.0,0.0,0.0,3
-99891.99,-54313.785,-100296.09,-1031.085,0.0,0.0,0.0,0.0,3
-99901.53,-54320.85,-100302.525,-1033.515,0.0,0.0,0.0,0.0,3
-99899.145,-54324.18,-100301.085,-1016.37,0.0,0.0,0.0,0.0,3
-99889.47,-54324.225,-100305.54,-1013.625,0.0,0.0,0.0,0.0,3
-99882.225,-54327.645,-100309.815,-1030.275,0.0,0.0,0.0,0.0,3
-99884.16,-54329.76,-100310.445,-1036.035,0.0,0.0,0.0,0.0,3
-99916.74,-54333.0,-100302.12,-1021.545,0.0,0.0,0.0,0.0,3
-99952.02,-54331.875,-100289.52,-1008.63,0.0,0.0,0.0,0.0,3
-99937.89,-54322.92,-100296.045,-1017.315,0.0,0.0,0.0,0.0,3
-99873.855,-54319.455,-100322.775,-1041.03,0.0,0.0,0.0,0.0,3
-99867.69,-54327.555,-100330.29,-1049.985,0.0,0.0,0.0,0.0,3
-99884.475,-54331.515,-100320.885,-1042.065,0.0,0.0,0.0,0.0,3
-99886.77,-54333.18,-100311.84,-1032.255,0.0,0.0,0.0,0.0,3
-99879.615,-54332.19,-100299.825,-1018.215,0.0,0.0,0.0,0.0,3
-99873.27,-54331.47,-100295.415,-1016.19,0.0,0.0,0.0,0.0,3
-99880.875,-54330.21,-100290.555,-1007.91,0.0,0.0,0.0,0.0,3
-99894.915,-54335.655,-100286.685,-1004.715,0.0,0.0,0.0,0.0,3
-99897.075,-54336.375,-100304.82,-1021.905,0.0,0.0,0.0,0.0,3
-99901.26,-54334.485,-100332.045,-1047.555,0.0,0.0,0.0,0.0,3
-99913.05,-54334.71,-100346.085,-1060.245,0.0,0.0,0.0,0.0,3
-99913.095,-54335.835,-100336.59,-1049.94,0.0,0.0,0.0,0.0,3
-99920.34,-54338.355,-100323.27,-1029.06,0.0,0.0,0.0,0.0,3
-99915.75,-54340.47,-100331.19,-1040.805,0.0,0.0,0.0,0.0,3
-99897.3,-54340.065,-100321.38,-1037.79,0.0,0.0,0.0,0.0,3
-99893.43,-54340.47,-100313.505,-1033.47,0.0,0.0,0.0,0.0,3
-99888.795,-54340.38,-100303.92,-1021.095,0.0,0.0,0.0,0.0,3
-99905.265,-54344.43,-100307.7,-1020.195,0.0,0.0,0.0,0.0,3
-99926.415,-54346.995,-100336.5,-1045.395,0.0,0.0,0.0,0.0,3
-99927.765,-54343.26,-100343.295,-1050.39,0.0,0.0,0.0,0.0,3
-99911.655,-54339.705,-100330.74,-1043.325,0.0,0.0,0.0,0.0,3
-99903.69,-54340.29,-100325.7,-1045.35,0.0,0.0,0.0,0.0,3
-99891.72,-54339.705,-100315.845,-1041.03,0.0,0.0,0.0,0.0,3
-99894.555,-54342.18,-100313.19,-1036.98,0.0,0.0,0.0,0.0,3
-99897.3,-54342.18,-100320.165,-1039.005,0.0,0.0,0.0,0.0,3
-99910.035,-54344.025,-100322.505,-1035.72,0.0,0.0,0.0,0.0,3
-99931.905,-54347.805,-100330.425,-1037.025,0.0,0.0,0.0,0.0,3
-99933.48,-54353.79,-100332.54,-1037.475,0.0,0.0,0.0,0.0,3
-99919.305,-54354.78,-100323.405,-1029.06,0.0,0.0,0.0,0.0,3
-99887.49,-54350.28,-100305.27,-1025.595,0.0,0.0,0.0,0.0,3
-99888.3,-54343.62,-100312.965,-1036.89,0.0,0.0,0.0,0.0,3
-99903.825,-54342.855,-100325.025,-1040.85,0.0,0.0,0.0,0.0,3
-99921.87,-54342.765,-100335.42,-1041.39,0.0,0.0,0.0,0.0,3
-99932.22,-54344.205,-100341.315,-1035.315,0.0,0.0,0.0,0.0,3
-99918.45,-54342.585,-100341.585,-1047.87,0.0,0.0,0.0,0.0,3
-99910.755,-54341.01,-100321.335,-1038.24,0.0,0.0,0.0,0.0,3
-99890.73,-54339.39,-100312.065,-1036.08,0.0,0.0,0.0,0.0,3
-99892.44,-54337.95,-100309.545,-1032.615,0.0,0.0,0.0,0.0,3
-99904.5,-54336.51,-100320.84,-1037.655,0.0,0.0,0.0,0.0,3
-99902.07,-54331.605,-100315.44,-1029.06,0.0,0.0,0.0,0.0,3
-99901.44,-54328.68,-100314.99,-1029.645,0.0,0.0,0.0,0.0,3
-99906.525,-54330.345,-100322.64,-1038.105,0.0,0.0,0.0,0.0,3
-99908.55,-54329.985,-100322.91,-1035.675,0.0,0.0,0.0,0.0,3
-99909.9,-54331.605,-100324.395,-1032.48,0.0,0.0,0.0,0.0,3
-99909.135,-54331.155,-100316.79,-1024.56,0.0,0.0,0.0,0.0,3
-99908.145,-54330.93,-100324.08,-1036.845,0.0,0.0,0.0,0.0,3
-99908.46,-54329.49,-100317.96,-1029.195,0.0,0.0,0.0,0.0,3
-99913.725,-54330.48,-100324.125,-1030.68,0.0,0.0,0.0,0.0,3
-99917.865,-54334.665,-100333.215,-1039.995,0.0,0.0,0.0,0.0,3
-99926.64,-54336.24,-100337.13,-1039.455,0.0,0.0,0.0,0.0,3
-99920.115,-54332.325,-100323.405,-1028.79,0.0,0.0,0.0,0.0,3
-99916.515,-54331.065,-100327.545,-1034.64,0.0,0.0,0.0,0.0,3
-99912.33,-54330.975,-100329.885,-1041.57,0.0,0.0,0.0,0.0,3
-99910.17,-54331.2,-100324.575,-1034.91,0.0,0.0,0.0,0.0,3
-99920.025,-54330.615,-100327.23,-1031.355,0.0,0.0,0.0,0.0,3
-99937.89,-54333.585,-100334.385,-1029.195,0.0,0.0,0.0,0.0,3
-99937.755,-54331.47,-100343.655,-1039.905,0.0,0.0,0.0,0.0,3
-99926.955,-54329.22,-100334.205,-1034.415,0.0,0.0,0.0,0.0,3
-99914.805,-54329.76,-100324.755,-1032.75,0.0,0.0,0.0,0.0,3
-99908.055,-54330.615,-100319.265,-1030.545,0.0,0.0,0.0,0.0,3
-99909.045,-54328.365,-100322.37,-1031.355,0.0,0.0,0.0,0.0,3
-99911.97,-54327.375,-100324.215,-1030.86,0.0,0.0,0.0,0.0,3
-99907.695,-54328.005,-100319.4,-1025.145,0.0,0.0,0.0,0.0,3
-99903.915,-54330.39,-100307.97,-1011.42,0.0,0.0,0.0,0.0,3
-99906.57,-54328.725,-100311.66,-1015.92,0.0,0.0,0.0,0.0,3
-99916.155,-54328.95,-100333.035,-1041.165,0.0,0.0,0.0,0.0,3
-99918.135,-54327.465,-100326.42,-1030.815,0.0,0.0,0.0,0.0,3
-99918.45,-54327.195,-100324.44,-1026.54,0.0,0.0,0.0,0.0,3
-99914.94,-54326.61,-100323.63,-1023.57,0.0,0.0,0.0,0.0,3
-99911.34,-54324.27,-100327.68,-1027.17,0.0,0.0,0.0,0.0,3
-99912.51,-54324.585,-100327.68,-1031.805,0.0,0.0,0.0,0.0,3
-99915.03,-54327.105,-100318.905,-1022.13,0.0,0.0,0.0,0.0,3
-99907.875,-54325.305,-100317.915,-1020.42,0.0,0.0,0.0,0.0,3
-99910.17,-54325.62,-100332.63,-1032.435,0.0,0.0,0.0,0.0,3
-99917.73,-54325.935,-100338.84,-1036.305,0.0,0.0,0.0,0.0,3
-99913.5,-54326.7,-100330.515,-1027.17,0.0,0.0,0.0,0.0,3
-99910.035,-54326.925,-100326.015,-1027.035,0.0,0.0,0.0,0.0,3
-99910.845,-54328.32,-100325.25,-1025.415,0.0,0.0,0.0,0.0,3
-99909.99,-54329.58,-100325.79,-1026.765,0.0,0.0,0.0,0.0,3
-99906.345,-54326.745,-100321.245,-1025.55,0.0,0.0,0.0,0.0,3
-99907.515,-54323.055,-100319.805,-1023.795,0.0,0.0,0.0,0.0,3
-99912.42,-54324.9,-100326.42,-1027.485,0.0,0.0,0.0,0.0,3
-99916.605,-54325.8,-100329.165,-1029.645,0.0,0.0,0.0,0.0,3
-99919.44,-54326.43,-100323.18,-1016.91,0.0,0.0,0.0,0.0,3
-99914.85,-54325.395,-100324.935,-1019.25,0.0,0.0,0.0,0.0,3
-99912.375,-54325.755,-100330.11,-1026.18,0.0,0.0,0.0,0.0,3
-99918.81,-54327.555,-100333.755,-1031.04,0.0,0.0,0.0,0.0,3
-99913.275,-54330.345,-100330.02,-1028.475,0.0,0.0,0.0,0.0,3
-99907.515,-54328.23,-100327.365,-1026.495,0.0,0.0,0.0,0.0,3
-99911.25,-54323.19,-100331.19,-1030.05,0.0,0.0,0.0,0.0,3
-99912.105,-54320.13,-100324.35,-1021.95,0.0,0.0,0.0,0.0,3
-99921.105,-54321.975,-100327.005,-1016.73,0.0,0.0,0.0,0.0,3
-99925.065,-54319.905,-100333.305,-1022.04,0.0,0.0,0.0,0.0,3
-99910.17,-54319.815,-100324.53,-1021.86,0.0,0.0,0.0,0.0,3
-99912.015,-54319.995,-100328.31,-1023.12,0.0,0.0,0.0,0.0,3
-99914.22,-54319.995,-100322.235,-1014.435,0.0,0.0,0.0,0.0,3
-99915.525,-54318.15,-100323.81,-1017.72,0.0,0.0,0.0,0.0,3
-99919.755,-54319.32,-100329.345,-1024.065,0.0,0.0,0.0,0.0,3
-99920.745,-54318.24,-100334.88,-1027.08,0.0,0.0,0.0,0.0,3
-99920.52,-54311.805,-100336.095,-1028.25,0.0,0.0,0.0,0.0,3
-99915.525,-54310.68,-100335.015,-1029.87,0.0,0.0,0.0,0.0,3
-99917.415,-54313.515,-100333.575,-1026.045,0.0,0.0,0.0,0.0,3
-99916.47,-54315.585,-100328.04,-1017.765,0.0,0.0,0.0,0.0,3
-99916.335,-54320.355,-100329.84,-1021.005,0.0,0.0,0.0,0.0,3
-99911.925,-54322.83,-100330.605,-1024.065,0.0,0.0,0.0,0.0,3
-99913.455,-54324.54,-100337.22,-1030.905,0.0,0.0,0.0,0.0,3
-99912.645,-54322.11,-100324.08,-1016.37,0.0,0.0,0.0,0.0,3
-99913.14,-54324.99,-100335.915,-1029.33,0.0,0.0,0.0,0.0,3
-99935.73,-54323.145,-100341.045,-1022.355,0.0,0.0,0.0,0.0,3
-99944.28,-54319.455,-100339.29,-1016.19,0.0,0.0,0.0,0.0,3
-99917.685,-54321.12,-100334.97,-1022.175,0.0,0.0,0.0,0.0,3
-99907.56,-54324.27,-100331.145,-1020.195,0.0,0.0,0.0,0.0,3
-99909.135,-54319.77,-100332.945,-1023.165,0.0,0.0,0.0,0.0,3
-99912.69,-54317.925,-100331.55,-1022.985,0.0,0.0,0.0,0.0,3
-99918.27,-54314.82,-100332.405,-1021.905,0.0,0.0,0.0,0.0,3
-99916.47,-54312.705,-100324.53,-1011.24,0.0,0.0,0.0,0.0,3
-99915.615,-54313.425,-100334.79,-1023.435,0.0,0.0,0.0,0.0,3
-99918.72,-54316.485,-100340.415,-1027.98,0.0,0.0,0.0,0.0,3
-99913.455,-54316.755,-100339.56,-1027.305,0.0,0.0,0.0,0.0,3
-99916.47,-54311.4,-100340.64,-1024.515,0.0,0.0,0.0,0.0,3
-99922.905,-54308.88,-100342.17,-1024.605,0.0,0.0,0.0,0.0,3
-99919.845,-54310.095,-100343.79,-1029.555,0.0,0.0,0.0,0.0,3
-99911.07,-54308.79,-100329.255,-1014.84,0.0,0.0,0.0,0.0,3
-99913.59,-54311.265,-100337.085,-1022.895,0.0,0.0,0.0,0.0,3
-99916.335,-54309.78,-100347.57,-1035.405,0.0,0.0,0.0,0.0,3
-99918.495,-54310.905,-100345.095,-1031.31,0.0,0.0,0.0,0.0,3
-99917.955,-54312.435,-100346.67,-1033.065,0.0,0.0,0.0,0.0,3
-99917.55,-54314.91,-100340.55,-1025.325,0.0,0.0,0.0,0.0,3
-99914.04,-54313.605,-100334.25,-1017.81,0.0,0.0,0.0,0.0,3
-99919.755,-54307.17,-100344.78,-1028.565,0.0,0.0,0.0,0.0,3
-99922.995,-54304.38,-100336.32,-1017.585,0.0,0.0,0.0,0.0,3
-99911.88,-54305.325,-100331.37,-1015.74,0.0,0.0,0.0,0.0,3
-99915.705,-54307.98,-100341.765,-1027.305,0.0,0.0,0.0,0.0,3
-99914.625,-54311.985,-100332.27,-1017.72,0.0,0.0,0.0,0.0,3
-99918.135,-54313.29,-100341.945,-1029.33,0.0,0.0,0.0,0.0,3
-99915.435,-54315.09,-100344.555,-1033.965,0.0,0.0,0.0,0.0,3
-99911.115,-54318.375,-100342.44,-1033.29,0.0,0.0,0.0,0.0,3
-99913.635,-54320.76,-100338.795,-1025.775,0.0,0.0,0.0,0.0,3
-99922.68,-54320.445,-100346.67,-1028.835,0.0,0.0,0.0,0.0,3
-99916.515,-54319.365,-100333.53,-1016.055,0.0,0.0,0.0,0.0,3
-99911.43,-54317.97,-100337.985,-1020.96,0.0,0.0,0.0,0.0,3
-99917.775,-54318.825,-100340.055,-1020.24,0.0,0.0,0.0,0.0,3
-99922.185,-54319.095,-100354.725,-1034.865,0.0,0.0,0.0,0.0,3
-99921.465,-54319.995,-100355.895,-1038.78,0.0,0.0,0.0,0.0,3
-99915.615,-54320.49,-100337.94,-1022.85,0.0,0.0,0.0,0.0,3
-99914.67,-54321.93,-100339.29,-1025.865,0.0,0.0,0.0,0.0,3
-99912.645,-54320.985,-100349.865,-1038.33,0.0,0.0,0.0,0.0,3
-99912.105,-54321.705,-100345.995,-1035.54,0.0,0.0,0.0,0.0,3
-99912.915,-54321.525,-100339.965,-1027.035,0.0,0.0,0.0,0.0,3
-99914.535,-54320.76,-100336.32,-1020.015,0.0,0.0,0.0,0.0,3
-99920.205,-54321.48,-100344.555,-1024.695,0.0,0.0,0.0,0.0,3
-99920.295,-54322.92,-100345.275,-1025.73,0.0,0.0,0.0,0.0,3
-99922.545,-54324.495,-100351.98,-1033.875,0.0,0.0,0.0,0.0,3
-99929.835,-54327.015,-100352.52,-1033.515,0.0,0.0,0.0,0.0,3
-99922.59,-54326.475,-100342.845,-1024.245,0.0,0.0,0.0,0.0,3
-99914.355,-54334.17,-100336.365,-1020.33,0.0,0.0,0.0,0.0,3
-99914.58,-54342.315,-100338.84,-1019.97,0.0,0.0,0.0,0.0,3
-99917.955,-54344.565,-100347.12,-1030.095,0.0,0.0,0.0,0.0,3
-99922.995,-54340.425,-100342.845,-1024.83,0.0,0.0,0.0,0.0,3
-99919.665,-54331.38,-100347.75,-1029.96,0.0,0.0,0.0,0.0,3
-99922.77,-54331.92,-100351.62,-1033.425,0.0,0.0,0.0,0.0,3
-99918.36,-54336.6,-100348.425,-1030.23,0.0,0.0,0.0,0.0,3
-99913.995,-54335.655,-100348.47,-1032.705,0.0,0.0,0.0,0.0,3
-99915.93,-54336.195,-100342.44,-1021.5,0.0,0.0,0.0,0.0,3
-99923.94,-54338.31,-100348.605,-1024.38,0.0,0.0,0.0,0.0,3
-99921.465,-54340.38,-100348.29,-1030.365,0.0,0.0,0.0,0.0,3
-99906.84,-54344.61,-100342.395,-1028.655,0.0,0.0,0.0,0.0,3
-99918.54,-54350.37,-100352.115,-1034.37,0.0,0.0,0.0,0.0,3
-99919.17,-54350.775,-100349.37,-1029.555,0.0,0.0,0.0,0.0,3
-99915.525,-54345.645,-100341.675,-1022.49,0.0,0.0,0.0,0.0,3
-99917.685,-54343.485,-100349.19,-1033.155,0.0,0.0,0.0,0.0,3
-99929.61,-54346.14,-100361.25,-1042.74,0.0,0.0,0.0,0.0,3
-99929.115,-54346.365,-100359.225,-1037.16,0.0,0.0,0.0,0.0,3
-99924.255,-54347.58,-100355.31,-1036.53,0.0,0.0,0.0,0.0,3
-99924.525,-54345.015,-100347.075,-1028.025,0.0,0.0,0.0,0.0,3
-99925.83,-54345.915,-100356.21,-1032.21,0.0,0.0,0.0,0.0,3
-99932.67,-54349.11,-100359.045,-1033.515,0.0,0.0,0.0,0.0,3
-99927.81,-54353.835,-100355.625,-1032.39,0.0,0.0,0.0,0.0,3
-99920.79,-54355.77,-100358.1,-1039.455,0.0,0.0,0.0,0.0,3
-99925.695,-54356.715,-100358.37,-1037.97,0.0,0.0,0.0,0.0,3
-99928.125,-54357.705,-100359.09,-1037.79,0.0,0.0,0.0,0.0,3
-99927.18,-54357.795,-100358.55,-1035.945,0.0,0.0,0.0,0.0,3
-99928.53,-54354.78,-100358.46,-1034.325,0.0,0.0,0.0,0.0,3
-99926.55,-54355.455,-100356.21,-1034.955,0.0,0.0,0.0,0.0,3
-99924.435,-54356.4,-100353.15,-1031.175,0.0,0.0,0.0,0.0,3
-99925.515,-54359.325,-100353.645,-1032.165,0.0,0.0,0.0,0.0,3
-99929.07,-54361.62,-100362.24,-1041.615,0.0,0.0,0.0,0.0,3
-99932.04,-54363.33,-100360.53,-1038.195,0.0,0.0,0.0,0.0,3
-99931.545,-54362.745,-100343.43,-1015.875,0.0,0.0,0.0,0.0,3
-99922.32,-54358.92,-100359.72,-1043.1,0.0,0.0,0.0,0.0,3
-99926.73,-54358.02,-100356.795,-1035.54,0.0,0.0,0.0,0.0,3
-99927.765,-54358.74,-100354.41,-1030.905,0.0,0.0,0.0,0.0,3
-99926.235,-54359.505,-100358.19,-1035.99,0.0,0.0,0.0,0.0,3
-99928.575,-54361.8,-100363.095,-1042.695,0.0,0.0,0.0,0.0,3
-99929.115,-54365.625,-100360.845,-1040.13,0.0,0.0,0.0,0.0,3
-99931.41,-54369.36,-100360.89,-1038.24,0.0,0.0,0.0,0.0,3
-99933.075,-54369.585,-100363.365,-1039.095,0.0,0.0,0.0,0.0,3
-99932.13,-54370.62,-100364.265,-1040.445,0.0,0.0,0.0,0.0,3
-99932.31,-54371.385,-100361.52,-1038.015,0.0,0.0,0.0,0.0,3
-99934.74,-54365.49,-100359.225,-1035.81,0.0,0.0,0.0,0.0,3
-99937.62,-54360.36,-100348.47,-1019.16,0.0,0.0,0.0,0.0,3
-99926.55,-54360.54,-100348.065,-1022.22,0.0,0.0,0.0,0.0,3
-99927.63,-54364.32,-100372.14,-1049.76,0.0,0.0,0.0,0.0,3
-99927.315,-54367.065,-100361.25,-1041.255,0.0,0.0,0.0,0.0,3
-99921.555,-54369.18,-100358.955,-1041.57,0.0,0.0,0.0,0.0,3
-99922.365,-54373.23,-100371.105,-1056.33,0.0,0.0,0.0,0.0,3
-99928.035,-54375.57,-100363.815,-1048.14,0.0,0.0,0.0,0.0,3
-99932.895,-54379.89,-100363.815,-1044.99,0.0,0.0,0.0,0.0,3
-99935.19,-54375.03,-100364.895,-1040.49,0.0,0.0,0.0,0.0,3
-99935.325,-54363.645,-100361.115,-1035.495,0.0,0.0,0.0,0.0,3
-99932.985,-54360.315,-100367.415,-1042.47,0.0,0.0,0.0,0.0,3
-99935.46,-54359.595,-100367.82,-1041.75,0.0,0.0,0.0,0.0,3
-99934.425,-54361.17,-100369.215,-1044.225,0.0,0.0,0.0,0.0,3
-99934.605,-54363.375,-100363.995,-1036.98,0.0,0.0,0.0,0.0,3
-99937.305,-54364.23,-100359.63,-1035.27,0.0,0.0,0.0,0.0,3
-99935.28,-54366.705,-100370.07,-1049.355,0.0,0.0,0.0,0.0,3
-99927.54,-54364.95,-100360.89,-1042.605,0.0,0.0,0.0,0.0,3
-99927.54,-54367.11,-100367.46,-1047.78,0.0,0.0,0.0,0.0,3
-99930.915,-54369.495,-100359.945,-1033.245,0.0,0.0,0.0,0.0,3
-99942.93,-54364.23,-100369.98,-1037.52,0.0,0.0,0.0,0.0,3
-99942.165,-54364.815,-100371.69,-1041.705,0.0,0.0,0.0,0.0,3
-99937.08,-54368.1,-100367.415,-1038.825,0.0,0.0,0.0,0.0,3
-99935.145,-54370.62,-100364.4,-1035.72,0.0,0.0,0.0,0.0,3
-99936.675,-54373.05,-100364.67,-1034.37,0.0,0.0,0.0,0.0,3
-99940.455,-54373.815,-100368.495,-1038.78,0.0,0.0,0.0,0.0,3
-99937.26,-54375.075,-100374.93,-1050.03,0.0,0.0,0.0,0.0,3
-99939.42,-54375.03,-100371.195,-1045.845,0.0,0.0,0.0,0.0,3
-99936.945,-54376.425,-100368.315,-1043.145,0.0,0.0,0.0,0.0,3
-99932.355,-54376.47,-100365.48,-1039.095,0.0,0.0,0.0,0.0,3
-99933.57,-54367.965,-100362.645,-1033.83,0.0,0.0,0.0,0.0,3
-99936.63,-54361.53,-100372.095,-1044.765,0.0,0.0,0.0,0.0,3
-99937.215,-54364.185,-100376.145,-1051.29,0.0,0.0,0.0,0.0,3
-99939.42,-54365.58,-100372.185,-1047.015,0.0,0.0,0.0,0.0,3
-99935.46,-54368.82,-100365.795,-1039.905,0.0,0.0,0.0,0.0,3
-99935.46,-54371.07,-100360.215,-1037.655,0.0,0.0,0.0,0.0,3
-99940.545,-54375.21,-100372.995,-1043.55,0.0,0.0,0.0,0.0,3
-99949.5,-54374.805,-100375.38,-1039.32,0.0,0.0,0.0,0.0,3
-99940.455,-54376.155,-100381.23,-1053.54,0.0,0.0,0.0,0.0,3
-99938.79,-54374.49,-100389.015,-1065.825,0.0,0.0,0.0,0.0,3
-99941.4,-54364.995,-100379.52,-1052.82,0.0,0.0,0.0,0.0,3
-99942.705,-54366.3,-100381.05,-1055.115,0.0,0.0,0.0,0.0,3
-99941.535,-54370.305,-100380.105,-1053.81,0.0,0.0,0.0,0.0,3
-99940.635,-54366.795,-100374.93,-1048.455,0.0,0.0,0.0,0.0,3
-99939.78,-54367.155,-100372.77,-1046.43,0.0,0.0,0.0,0.0,3
-99941.31,-54367.92,-100375.02,-1049.715,0.0,0.0,0.0,0.0,3
-99940.32,-54370.215,-100378.98,-1052.415,0.0,0.0,0.0,0.0,3
-99938.745,-54373.545,-100364.805,-1040.715,0.0,0.0,0.0,0.0,3
-99946.08,-54377.415,-100376.145,-1048.59,0.0,0.0,0.0,0.0,3
-99940.005,-54373.68,-100371.24,-1046.88,0.0,0.0,0.0,0.0,3
-99932.22,-54370.755,-100377.495,-1060.29,0.0,0.0,0.0,0.0,3
-99934.965,-54369.09,-100389.375,-1071.405,0.0,0.0,0.0,0.0,3
-99934.38,-54369.945,-100370.655,-1051.065,0.0,0.0,0.0,0.0,3
-99947.655,-54371.025,-100377.405,-1050.705,0.0,0.0,0.0,0.0,3
-99949.23,-54373.77,-100380.69,-1048.59,0.0,0.0,0.0,0.0,3
-99942.48,-54378.63,-100379.88,-1048.275,0.0,0.0,0.0,0.0,3
-99940.59,-54384.21,-100371.195,-1042.515,0.0,0.0,0.0,0.0,3
-99945.63,-54386.1,-100385.505,-1055.52,0.0,0.0,0.0,0.0,3
-99947.835,-54386.955,-100386.63,-1055.655,0.0,0.0,0.0,0.0,3
-99949.23,-54385.11,-100386.09,-1054.485,0.0,0.0,0.0,0.0,3
-99950.355,-54381.33,-100384.29,-1052.145,0.0,0.0,0.0,0.0,3
-99947.115,-54379.17,-100377.855,-1046.97,0.0,0.0,0.0,0.0,3
-99945.405,-54380.115,-100379.43,-1046.655,0.0,0.0,0.0,0.0,3
-99945.99,-54378.45,-100381.14,-1048.41,0.0,0.0,0.0,0.0,3
-99951.39,-54378.045,-100389.69,-1057.68,0.0,0.0,0.0,0.0,3
-99952.515,-54376.515,-100387.485,-1053.45,0.0,0.0,0.0,0.0,3
-99942.12,-54375.93,-100379.79,-1047.915,0.0,0.0,0.0,0.0,3
-99941.58,-54376.83,-100382.625,-1054.395,0.0,0.0,0.0,0.0,3
-99948.87,-54380.07,-100382.22,-1049.67,0.0,0.0,0.0,0.0,3
-99947.745,-54380.745,-100382.445,-1050.165,0.0,0.0,0.0,0.0,3
-99946.215,-54373.005,-100388.88,-1055.925,0.0,0.0,0.0,0.0,3
-99952.875,-54372.555,-100382.265,-1047.33,0.0,0.0,0.0,0.0,3
-99945.45,-54377.46,-100384.74,-1055.205,0.0,0.0,0.0,0.0,3
-99943.695,-54379.44,-100392.345,-1063.665,0.0,0.0,0.0,0.0,3
-99948.465,-54378.72,-100390.14,-1058.58,0.0,0.0,0.0,0.0,3
-99948.645,-54377.505,-100394.28,-1061.775,0.0,0.0,0.0,0.0,3
-99949.455,-54378.765,-100385.91,-1051.875,0.0,0.0,0.0,0.0,3
-99947.925,-54381.33,-100388.205,-1056.285,0.0,0.0,0.0,0.0,3
-99947.655,-54383.895,-100386.315,-1053.63,0.0,0.0,0.0,0.0,3
-99949.14,-54382.545,-100391.13,-1058.805,0.0,0.0,0.0,0.0,3
-99944.37,-54378.855,-100390.77,-1063.08,0.0,0.0,0.0,0.0,3
-99947.205,-54377.145,-100385.235,-1052.055,0.0,0.0,0.0,0.0,3
-99944.73,-54378.99,-100381.815,-1048.59,0.0,0.0,0.0,0.0,3
-99945.9,-54381.645,-100399.77,-1072.215,0.0,0.0,0.0,0.0,3
-99950.805,-54382.545,-100388.52,-1056.51,0.0,0.0,0.0,0.0,3
-99948.105,-54383.58,-100381.185,-1048.14,0.0,0.0,0.0,0.0,3
-99947.205,-54386.595,-100387.755,-1057.005,0.0,0.0,0.0,0.0,3
-99948.96,-54385.47,-100393.965,-1061.64,0.0,0.0,0.0,0.0,3
-99947.07,-54385.155,-100389.06,-1055.79,0.0,0.0,0.0,0.0,3
-99946.215,-54385.47,-100384.155,-1049.805,0.0,0.0,0.0,0.0,3
-99946.89,-54381.69,-100382.85,-1045.935,0.0,0.0,0.0,0.0,3
-99950.4,-54383.22,-100384.11,-1045.575,0.0,0.0,0.0,0.0,3
-99945.495,-54386.64,-100388.115,-1056.555,0.0,0.0,0.0,0.0,3
-99950.265,-54387.495,-100398.645,-1068.39,0.0,0.0,0.0,0.0,3
-99950.985,-54390.06,-100399.77,-1071.27,0.0,0.0,0.0,0.0,3
-99949.815,-54389.25,-100398.24,-1069.38,0.0,0.0,0.0,0.0,3
-99948.06,-54388.08,-100394.64,-1064.43,0.0,0.0,0.0,0.0,3
-99948.87,-54386.955,-100393.155,-1062.585,0.0,0.0,0.0,0.0,3
-99947.61,-54387.315,-100389.87,-1058.67,0.0,0.0,0.0,0.0,3
-99944.73,-54384.795,-100396.665,-1067.085,0.0,0.0,0.0,0.0,3
-99947.43,-54383.355,-100386.765,-1053.765,0.0,0.0,0.0,0.0,3
-99951.075,-54382.185,-100382.535,-1048.545,0.0,0.0,0.0,0.0,3
-99951.705,-54383.265,-100389.375,-1059.075,0.0,0.0,0.0,0.0,3
-99950.355,-54382.635,-100388.43,-1060.65,0.0,0.0,0.0,0.0,3
-99941.94,-54383.76,-100385.775,-1060.38,0.0,0.0,0.0,0.0,3
-99946.17,-54383.445,-100388.295,-1056.465,0.0,0.0,0.0,0.0,3
-99953.19,-54384.165,-100394.01,-1055.79,0.0,0.0,0.0,0.0,3
-99946.98,-54383.49,-100388.97,-1055.115,0.0,0.0,0.0,0.0,3
-99954.9,-54384.795,-100393.695,-1056.015,0.0,0.0,0.0,0.0,3
-99965.43,-54383.94,-100401.525,-1061.37,0.0,0.0,0.0,0.0,3
-99954.315,-54377.955,-100395.54,-1064.115,0.0,0.0,0.0,0.0,3
-99951.12,-54380.97,-100401.165,-1069.65,0.0,0.0,0.0,0.0,3
-99950.535,-54384.345,-100396.71,-1063.665,0.0,0.0,0.0,0.0,3
-99948.645,-54381.51,-100390.275,-1059.48,0.0,0.0,0.0,0.0,3
-99952.065,-54382.59,-100395.765,-1062.99,0.0,0.0,0.0,0.0,3
-99953.955,-54383.4,-100397.07,-1061.955,0.0,0.0,0.0,0.0,3
-99952.02,-54384.435,-100395.495,-1060.785,0.0,0.0,0.0,0.0,3
-99952.11,-54386.19,-100393.74,-1059.93,0.0,0.0,0.0,0.0,3
-99949.59,-54387.18,-100393.2,-1061.1,0.0,0.0,0.0,0.0,3
-99954.225,-54386.19,-100398.42,-1061.28,0.0,0.0,0.0,0.0,3
-99955.98,-54380.565,-100402.38,-1065.915,0.0,0.0,0.0,0.0,3
-99952.92,-54377.055,-100405.485,-1073.97,0.0,0.0,0.0,0.0,3
-99951.03,-54377.325,-100392.615,-1058.58,0.0,0.0,0.0,0.0,3
-99955.71,-54376.245,-100393.245,-1057.32,0.0,0.0,0.0,0.0,3
-99956.07,-54375.66,-100404.315,-1070.64,0.0,0.0,0.0,0.0,3
-99950.22,-54374.13,-100395.855,-1064.025,0.0,0.0,0.0,0.0,3
-99954.81,-54374.445,-100394.82,-1060.02,0.0,0.0,0.0,0.0,3
-99963.9,-54372.555,-100386.09,-1046.16,0.0,0.0,0.0,0.0,3
-99949.545,-54372.195,-100404.315,-1075.455,0.0,0.0,0.0,0.0,3
-99953.415,-54368.19,-100412.64,-1081.08,0.0,0.0,0.0,0.0,3
-99955.755,-54356.895,-100405.845,-1070.82,0.0,0.0,0.0,0.0,3
-99957.105,-54353.34,-100406.025,-1069.785,0.0,0.0,0.0,0.0,3
-99957.645,-54354.78,-100404.9,-1066.545,0.0,0.0,0.0,0.0,3
-99950.535,-54353.925,-100397.205,-1061.28,0.0,0.0,0.0,0.0,3
-99953.19,-54355.32,-100401.165,-1064.205,0.0,0.0,0.0,0.0,3
-99958.5,-54357.03,-100408.77,-1071.18,0.0,0.0,0.0,0.0,3
-99956.61,-54358.74,-100404.36,-1069.92,0.0,0.0,0.0,0.0,3
-99955.26,-54358.245,-100398.24,-1065.06,0.0,0.0,0.0,0.0,3
-99951.795,-54357.525,-100398.015,-1064.565,0.0,0.0,0.0,0.0,3
-99948.24,-54353.79,-100405.89,-1070.685,0.0,0.0,0.0,0.0,3
-99950.04,-54346.77,-100400.625,-1064.745,0.0,0.0,0.0,0.0,3
-99957.87,-54342.45,-100404.945,-1070.055,0.0,0.0,0.0,0.0,3
-99956.52,-54341.955,-100404.09,-1068.795,0.0,0.0,0.0,0.0,3
-99952.425,-54341.325,-100396.845,-1059.525,0.0,0.0,0.0,0.0,3
-99954.9,-54341.82,-100401.255,-1063.935,0.0,0.0,0.0,0.0,3
-99962.1,-54342.54,-100413.27,-1079.19,0.0,0.0,0.0,0.0,3
-99958.995,-54341.955,-100408.815,-1074.69,0.0,0.0,0.0,0.0,3
-99956.115,-54341.28,-100402.245,-1067.715,0.0,0.0,0.0,0.0,3
-99957.195,-54341.82,-100403.37,-1068.21,0.0,0.0,0.0,0.0,3
-99959.13,-54341.955,-100405.53,-1068.795,0.0,0.0,0.0,0.0,3
-99956.16,-54344.745,-100405.62,-1069.245,0.0,0.0,0.0,0.0,3
-99958.68,-54347.49,-100404.405,-1068.615,0.0,0.0,0.0,0.0,3
-99968.13,-54349.515,-100399.725,-1062.09,0.0,0.0,0.0,0.0,3
-99958.455,-54349.335,-100412.505,-1077.21,0.0,0.0,0.0,0.0,3
-99957.015,-54350.19,-100422.405,-1084.68,0.0,0.0,0.0,0.0,3
-99961.83,-54349.335,-100407.6,-1067.535,0.0,0.0,0.0,0.0,3
-99963.0,-54346.545,-100412.055,-1072.845,0.0,0.0,0.0,0.0,3
-99960.075,-54344.88,-100401.795,-1060.605,0.0,0.0,0.0,0.0,3
-99953.82,-54345.825,-100402.155,-1064.205,0.0,0.0,0.0,0.0,3
-99962.19,-54346.23,-100408.725,-1070.82,0.0,0.0,0.0,0.0,3
-99961.11,-54350.01,-100405.53,-1067.625,0.0,0.0,0.0,0.0,3
-99959.49,-54352.665,-100406.52,-1069.56,0.0,0.0,0.0,0.0,3
-99958.185,-54353.34,-100400.805,-1062.585,0.0,0.0,0.0,0.0,3
