CH1,CH2,CH3,CH4,CH5,CH6,CH7,CH8,Target
-6905.745,14442.795,-6429.96,-15651.495,0.0,0.0,0.0,0.0,2
-6908.31,14434.785,-6466.995,-15632.325,0.0,0.0,0.0,0.0,2
-6918.75,14446.845,-6423.255,-15651.675,0.0,0.0,0.0,0.0,2
-6900.21,14490.495,-6353.37,-15719.895,0.0,0.0,0.0,0.0,2
-6887.52,14495.49,-6335.55,-15719.805,0.0,0.0,0.0,0.0,2
-6881.265,14538.105,-6272.28,-15694.02,0.0,0.0,0.0,0.0,2
-6904.665,14557.545,-6205.41,-15628.005,0.0,0.0,0.0,0.0,2
-6910.515,14548.68,-6222.24,-15614.28,0.0,0.0,0.0,0.0,2
-6899.895,14534.595,-6267.465,-15636.015,0.0,0.0,0.0,0.0,2
-6898.59,14521.77,-6289.02,-15648.12,0.0,0.0,0.0,0.0,2
-6898.725,14526.09,-6275.115,-15634.53,0.0,0.0,0.0,0.0,2
-6895.44,14530.455,-6272.73,-15634.53,0.0,0.0,0.0,0.0,2
-6897.555,14527.17,-6282.855,-15645.645,0.0,0.0,0.0,0.0,2
-6895.215,14523.66,-6288.075,-15645.555,0.0,0.0,0.0,0.0,2
-6885.855,14531.67,-6279.12,-15629.535,0.0,0.0,0.0,0.0,2
-6889.05,14524.605,-6287.31,-15631.515,0.0,0.0,0.0,0.0,2
-6891.03,14522.175,-6289.695,-15632.415,0.0,0.0,0.0,0.0,2
-6886.305,14527.62,-6284.745,-15630.03,0.0,0.0,0.0,0.0,2
-6885.63,14520.96,-6290.595,-15635.475,0.0,0.0,0.0,0.0,2
-6888.33,14512.905,-6296.31,-15637.905,0.0,0.0,0.0,0.0,2
-6890.985,14512.41,-6300.36,-15636.33,0.0,0.0,0.0,0.0,2
-6889.23,14513.22,-6306.66,-15633.99,0.0,0.0,0.0,0.0,2
-6876.9,14517.495,-6310.215,-15647.175,0.0,0.0,0.0,0.0,2
-6882.57,14514.885,-6306.03,-15653.295,0.0,0.0,0.0,0.0,2
-6887.835,14520.15,-6286.86,-15640.155,0.0,0.0,0.0,0.0,2
-6886.845,14533.875,-6265.71,-15619.545,0.0,0.0,0.0,0.0,2
-6881.445,14535.045,-6264.945,-15613.605,0.0,0.0,0.0,0.0,2
-6883.83,14524.2,-6279.39,-15629.67,0.0,0.0,0.0,0.0,2
-6905.52,14504.535,-6304.86,-15656.04,0.0,0.0,0.0,0.0,2
-6904.98,14510.07,-6302.835,-15650.955,0.0,0.0,0.0,0.0,2
-6881.445,14529.96,-6301.98,-15635.565,0.0,0.0,0.0,0.0,2
-6879.645,14528.52,-6299.505,-15638.625,0.0,0.0,0.0,0.0,2
-6875.145,14535.45,-6267.195,-15619.455,0.0,0.0,0.0,0.0,2
-6848.415,14563.62,-6226.965,-15576.345,0.0,0.0,0.0,0.0,2
-6837.345,14575.5,-6219.045,-15563.295,0.0,0.0,0.0,0.0,2
-6862.725,14539.905,-6269.895,-15613.29,0.0,0.0,0.0,0.0,2
-6892.38,14499.27,-6330.78,-15666.48,0.0,0.0,0.0,0.0,2
-6880.365,14487.435,-6359.175,-15689.205,0.0,0.0,0.0,0.0,2
-6889.5,14462.28,-6382.89,-15713.1,0.0,0.0,0.0,0.0,2
-6910.02,14475.915,-6347.43,-15685.515,0.0,0.0,0.0,0.0,2
-6927.615,14495.445,-6329.025,-15661.305,0.0,0.0,0.0,0.0,2
-6937.65,14510.385,-6302.745,-15636.24,0.0,0.0,0.0,0.0,2
-6902.685,14513.355,-6309.945,-15654.555,0.0,0.0,0.0,0.0,2
-6908.58,14509.8,-6296.58,-15654.645,0.0,0.0,0.0,0.0,2
-6919.605,14502.06,-6301.44,-15656.4,0.0,0.0,0.0,0.0,2
-6907.23,14516.01,-6289.83,-15642.225,0.0,0.0,0.0,0.0,2
-6899.085,14528.97,-6275.34,-15627.195,0.0,0.0,0.0,0.0,2
-6885.585,14532.12,-6274.305,-15606.99,0.0,0.0,0.0,0.0,2
-6893.28,14509.44,-6320.52,-15610.95,0.0,0.0,0.0,0.0,2
-6904.53,14489.82,-6359.49,-15625.305,0.0,0.0,0.0,0.0,2
-6914.205,14485.095,-6319.035,-15618.51,0.0,0.0,0.0,0.0,2
-6908.175,14499.36,-6306.705,-15636.33,0.0,0.0,0.0,0.0,2
-6891.975,14521.23,-6309.36,-15663.105,0.0,0.0,0.0,0.0,2
-6890.85,14506.155,-6323.04,-15692.22,0.0,0.0,0.0,0.0,2
-6894.18,14493.105,-6342.165,-15665.67,0.0,0.0,0.0,0.0,2
-6872.49,14500.485,-6352.74,-15661.575,0.0,0.0,0.0,0.0,2
-6840.81,14519.52,-6310.71,-15646.905,0.0,0.0,0.0,0.0,2
-6846.615,14523.93,-6279.615,-15634.215,0.0,0.0,0.0,0.0,2
-6917.31,14515.02,-6253.38,-15595.74,0.0,0.0,0.0,0.0,2
-6931.125,14482.575,-6332.805,-15616.125,0.0,0.0,0.0,0.0,2
-6915.735,14474.88,-6375.42,-15640.065,0.0,0.0,0.0,0.0,2
-6923.025,14490.72,-6321.465,-15645.915,0.0,0.0,0.0,0.0,2
-6910.47,14518.44,-6282.72,-15649.605,0.0,0.0,0.0,0.0,2
-6895.08,14529.285,-6271.695,-15660.045,0.0,0.0,0.0,0.0,2
-6903.09,14526.72,-6262.155,-15657.12,0.0,0.0,0.0,0.0,2
-6903.99,14522.085,-6266.295,-15631.11,0.0,0.0,0.0,0.0,2
-6895.395,14521.77,-6269.13,-15624.135,0.0,0.0,0.0,0.0,2
-6888.195,14522.715,-6276.645,-15640.605,0.0,0.0,0.0,0.0,2
-6884.73,14521.77,-6284.565,-15643.98,0.0,0.0,0.0,0.0,2
-6901.965,14521.95,-6297.12,-15636.15,0.0,0.0,0.0,0.0,2
-6907.995,14518.485,-6296.85,-15644.16,0.0,0.0,0.0,0.0,2
-6892.29,14524.245,-6279.795,-15644.61,0.0,0.0,0.0,0.0,2
-6883.47,14532.3,-6268.14,-15625.035,0.0,0.0,0.0,0.0,2
-6879.105,14531.76,-6276.69,-15621.93,0.0,0.0,0.0,0.0,2
-6867.495,14533.47,-6283.26,-15627.555,0.0,0.0,0.0,0.0,2
-6871.23,14537.07,-6276.69,-15618.105,0.0,0.0,0.0,0.0,2
-6881.085,14536.35,-6277.905,-15621.615,0.0,0.0,0.0,0.0,2
-6906.87,14525.235,-6280.785,-15624.81,0.0,0.0,0.0,0.0,2
-6912.18,14521.005,-6285.69,-15632.685,0.0,0.0,0.0,0.0,2
-6885.72,14531.22,-6275.745,-15620.265,0.0,0.0,0.0,0.0,2
-6865.83,14538.285,-6274.89,-15614.955,0.0,0.0,0.0,0.0,2
-6893.415,14508.18,-6309.045,-15643.53,0.0,0.0,0.0,0.0,2
-6914.115,14495.4,-6321.555,-15655.815,0.0,0.0,0.0,0.0,2
-6932.115,14484.645,-6328.665,-15666.39,0.0,0.0,0.0,0.0,2
-6907.14,14510.475,-6303.645,-15651.315,0.0,0.0,0.0,0.0,2
-6868.755,14557.005,-6248.52,-15593.04,0.0,0.0,0.0,0.0,2
-6855.48,14593.005,-6210.36,-15557.625,0.0,0.0,0.0,0.0,2
-6864.75,14595.93,-6203.34,-15551.01,0.0,0.0,0.0,0.0,2
-6897.15,14544.855,-6263.415,-15606.99,0.0,0.0,0.0,0.0,2
-6906.465,14522.31,-6286.995,-15625.8,0.0,0.0,0.0,0.0,2
-6876.315,14550.66,-6253.335,-15590.07,0.0,0.0,0.0,0.0,2
-6877.44,14546.07,-6263.865,-15601.815,0.0,0.0,0.0,0.0,2
-6905.88,14501.61,-6315.165,-15654.915,0.0,0.0,0.0,0.0,2
-6922.755,14477.715,-6337.395,-15676.335,0.0,0.0,0.0,0.0,2
-6909.12,14498.595,-6309.765,-15648.795,0.0,0.0,0.0,0.0,2
-6891.165,14526.36,-6289.695,-15630.795,0.0,0.0,0.0,0.0,2
-6896.25,14516.235,-6324.48,-15646.95,0.0,0.0,0.0,0.0,2
-6911.955,14491.035,-6341.535,-15671.43,0.0,0.0,0.0,0.0,2
-6918.21,14486.22,-6325.92,-15666.12,0.0,0.0,0.0,0.0,2
-6903.81,14501.025,-6314.13,-15635.07,0.0,0.0,0.0,0.0,2
-6879.42,14530.68,-6295.23,-15616.755,0.0,0.0,0.0,0.0,2
-6864.165,14555.475,-6258.465,-15596.415,0.0,0.0,0.0,0.0,2
-6879.78,14545.575,-6265.665,-15617.97,0.0,0.0,0.0,0.0,2
-6929.055,14496.93,-6310.35,-15664.905,0.0,0.0,0.0,0.0,2
-6943.635,14486.805,-6307.065,-15665.04,0.0,0.0,0.0,0.0,2
-6935.715,14491.44,-6327.495,-15664.86,0.0,0.0,0.0,0.0,2
-6924.645,14506.785,-6344.28,-15669.36,0.0,0.0,0.0,0.0,2
-6913.665,14498.37,-6349.95,-15659.46,0.0,0.0,0.0,0.0,2
-6908.31,14425.56,-6488.28,-15677.505,0.0,0.0,0.0,0.0,2
-6907.68,14370.255,-6516.945,-15667.065,0.0,0.0,0.0,0.0,2
-6898.275,14416.245,-6369.66,-15641.82,0.0,0.0,0.0,0.0,2
-6891.75,14511.915,-6253.605,-15646.68,0.0,0.0,0.0,0.0,2
-6876.585,14563.935,-6253.155,-15696.99,0.0,0.0,0.0,0.0,2
-6878.07,14566.455,-6226.38,-15649.695,0.0,0.0,0.0,0.0,2
-6877.215,14537.07,-6261.255,-15625.62,0.0,0.0,0.0,0.0,2
-6895.575,14525.685,-6269.265,-15623.505,0.0,0.0,0.0,0.0,2
-6912.18,14529.24,-6252.795,-15617.745,0.0,0.0,0.0,0.0,2
-6889.635,14545.665,-6241.95,-15617.565,0.0,0.0,0.0,0.0,2
-6879.69,14557.455,-6224.805,-15604.83,0.0,0.0,0.0,0.0,2
-6881.355,14547.825,-6238.53,-15610.23,0.0,0.0,0.0,0.0,2
-6890.445,14533.785,-6255.405,-15621.255,0.0,0.0,0.0,0.0,2
-6905.205,14518.89,-6273.81,-15636.87,0.0,0.0,0.0,0.0,2
-6907.635,14511.51,-6285.465,-15637.995,0.0,0.0,0.0,0.0,2
-6906.645,14515.11,-6282.54,-15626.115,0.0,0.0,0.0,0.0,2
-6880.275,14549.67,-6243.255,-15584.985,0.0,0.0,0.0,0.0,2
-6841.17,14570.01,-6231.87,-15576.48,0.0,0.0,0.0,0.0,2
-6839.865,14534.73,-6275.205,-15619.32,0.0,0.0,0.0,0.0,2
-6885.27,14475.87,-6335.55,-15680.745,0.0,0.0,0.0,0.0,2
-6916.14,14481.405,-6328.665,-15676.2,0.0,0.0,0.0,0.0,2
-6911.19,14515.965,-6289.425,-15642.405,0.0,0.0,0.0,0.0,2
-6914.88,14517.495,-6284.16,-15636.24,0.0,0.0,0.0,0.0,2
-6946.65,14495.355,-6300.945,-15646.635,0.0,0.0,0.0,0.0,2
-6947.415,14511.87,-6281.595,-15624.63,0.0,0.0,0.0,0.0,2
-6910.155,14544.81,-6249.015,-15593.49,0.0,0.0,0.0,0.0,2
-6900.93,14554.485,-6236.505,-15581.61,0.0,0.0,0.0,0.0,2
-6887.835,14566.95,-6220.215,-15566.94,0.0,0.0,0.0,0.0,2
-6887.88,14569.11,-6212.88,-15559.245,0.0,0.0,0.0,0.0,2
-6853.32,14610.33,-6169.5,-15514.785,0.0,0.0,0.0,0.0,2
-6876.945,14577.48,-6211.44,-15558.615,0.0,0.0,0.0,0.0,2
-6871.68,14578.47,-6214.995,-15562.26,0.0,0.0,0.0,0.0,2
-6813.18,14618.61,-6177.465,-15525.27,0.0,0.0,0.0,0.0,2
-6879.69,14543.46,-6255.9,-15603.615,0.0,0.0,0.0,0.0,2
-6957.09,14468.175,-6332.715,-15679.71,0.0,0.0,0.0,0.0,2
-6918.255,14503.86,-6298.11,-15638.175,0.0,0.0,0.0,0.0,2
-6901.65,14515.245,-6308.955,-15650.325,0.0,0.0,0.0,0.0,2
-6918.75,14479.785,-6333.03,-15692.355,0.0,0.0,0.0,0.0,2
-6900.39,14494.455,-6299.415,-15674.04,0.0,0.0,0.0,0.0,2
-6883.38,14514.03,-6283.845,-15640.695,0.0,0.0,0.0,0.0,2
-6901.875,14492.61,-6320.52,-15662.295,0.0,0.0,0.0,0.0,2
-6919.02,14478.705,-6349.365,-15690.105,0.0,0.0,0.0,0.0,2
-6924.78,14485.365,-6327.315,-15678.0,0.0,0.0,0.0,0.0,2
-6951.375,14477.085,-6308.64,-15675.39,0.0,0.0,0.0,0.0,2
-6964.695,14488.38,-6306.84,-15686.19,0.0,0.0,0.0,0.0,2
-6884.82,14590.98,-6212.25,-15582.645,0.0,0.0,0.0,0.0,2
-6834.375,14666.13,-6117.525,-15484.275,0.0,0.0,0.0,0.0,2
-6864.12,14646.87,-6181.965,-15553.755,0.0,0.0,0.0,0.0,2
-6930.675,14578.335,-6278.22,-15694.875,0.0,0.0,0.0,0.0,2
-6900.84,14581.755,-6224.22,-15630.84,0.0,0.0,0.0,0.0,2
-6868.17,14575.005,-6183.675,-15503.22,0.0,0.0,0.0,0.0,2
-6897.825,14535.72,-6227.595,-15542.19,0.0,0.0,0.0,0.0,2
-6849.18,14618.295,-6177.69,-15522.3,0.0,0.0,0.0,0.0,2
-6790.68,14686.605,-6125.67,-15482.205,0.0,0.0,0.0,0.0,2
-6816.24,14640.255,-6156.765,-15511.14,0.0,0.0,0.0,0.0,2
-6855.84,14578.47,-6198.705,-15544.89,0.0,0.0,0.0,0.0,2
-6909.255,14497.38,-6298.92,-15623.64,0.0,0.0,0.0,0.0,2
-6897.735,14486.76,-6329.52,-15664.59,0.0,0.0,0.0,0.0,2
-6919.245,14487.255,-6319.935,-15693.975,0.0,0.0,0.0,0.0,2
-6903.9,14552.955,-6223.545,-15611.445,0.0,0.0,0.0,0.0,2
-6806.745,14740.83,-6004.08,-15381.315,0.0,0.0,0.0,0.0,2
-6649.515,14945.76,-5798.88,-15168.375,0.0,0.0,0.0,0.0,2
-6619.95,14927.085,-5836.365,-15205.41,0.0,0.0,0.0,0.0,2
-6797.61,14650.875,-6143.49,-15505.515,0.0,0.0,0.0,0.0,2
-7025.22,14368.68,-6430.41,-15808.14,0.0,0.0,0.0,0.0,2
-6933.06,14520.285,-6260.265,-15651.675,0.0,0.0,0.0,0.0,2
-6833.61,14681.88,-6070.095,-15426.585,0.0,0.0,0.0,0.0,2
-6817.995,14700.51,-6060.105,-15425.415,0.0,0.0,0.0,0.0,2
-6853.77,14612.625,-6161.265,-15521.895,0.0,0.0,0.0,0.0,2
-6889.14,14557.32,-6215.22,-15577.875,0.0,0.0,0.0,0.0,2
-6802.605,14594.445,-6197.13,-15567.93,0.0,0.0,0.0,0.0,2
-6836.85,14539.455,-6259.005,-15628.635,0.0,0.0,0.0,0.0,2
-6903.27,14444.055,-6366.915,-15734.475,0.0,0.0,0.0,0.0,2
-6925.995,14440.635,-6360.75,-15724.665,0.0,0.0,0.0,0.0,2
-6947.37,14463.855,-6322.815,-15685.83,0.0,0.0,0.0,0.0,2
-7032.195,14431.05,-6345.765,-15710.04,0.0,0.0,0.0,0.0,2
-6974.775,14599.17,-6146.505,-15512.715,0.0,0.0,0.0,0.0,2
-6674.58,14942.52,-5791.095,-15160.68,0.0,0.0,0.0,0.0,2
-6554.25,14989.77,-5772.015,-15150.285,0.0,0.0,0.0,0.0,2
-6888.51,14587.56,-6176.025,-15561.945,0.0,0.0,0.0,0.0,2
-7105.725,14380.335,-6374.565,-15760.935,0.0,0.0,0.0,0.0,2
-6842.565,14627.88,-6151.545,-15528.915,0.0,0.0,0.0,0.0,2
-6668.73,14773.005,-6034.5,-15382.17,0.0,0.0,0.0,0.0,2
-6711.3,14757.525,-6070.14,-15429.42,0.0,0.0,0.0,0.0,2
-6909.705,14565.87,-6246.54,-15606.945,0.0,0.0,0.0,0.0,2
-6998.04,14478.165,-6301.17,-15687.945,0.0,0.0,0.0,0.0,2
-6949.71,14471.64,-6304.095,-15688.8,0.0,0.0,0.0,0.0,2
-6899.4,14478.165,-6288.12,-15646.995,0.0,0.0,0.0,0.0,2
-6924.06,14460.12,-6329.025,-15687.99,0.0,0.0,0.0,0.0,2
-6911.28,14541.3,-6249.87,-15608.61,0.0,0.0,0.0,0.0,2
-6779.565,14783.31,-5975.91,-15332.805,0.0,0.0,0.0,0.0,2
-6766.92,14851.845,-5902.965,-15267.915,0.0,0.0,0.0,0.0,2
-6867.315,14756.715,-6010.38,-15407.28,0.0,0.0,0.0,0.0,2
-6918.795,14740.965,-6022.17,-15421.545,0.0,0.0,0.0,0.0,2
-6905.745,14708.07,-6116.535,-15484.545,0.0,0.0,0.0,0.0,2
-6813.495,14665.41,-6206.13,-15554.61,0.0,0.0,0.0,0.0,2
-6786.72,14567.625,-6235.965,-15564.015,0.0,0.0,0.0,0.0,2
-6893.28,14447.025,-6317.235,-15675.93,0.0,0.0,0.0,0.0,2
-6980.805,14418.945,-6399.9,-15723.18,0.0,0.0,0.0,0.0,2
-6960.465,14463.585,-6324.705,-15663.87,0.0,0.0,0.0,0.0,2
-6930.18,14468.535,-6304.59,-15679.485,0.0,0.0,0.0,0.0,2
-6912.855,14495.355,-6293.07,-15661.755,0.0,0.0,0.0,0.0,2
-6969.87,14467.41,-6354.405,-15698.7,0.0,0.0,0.0,0.0,2
-6981.255,14475.51,-6328.935,-15686.55,0.0,0.0,0.0,0.0,2
-6957.09,14503.005,-6265.17,-15645.42,0.0,0.0,0.0,0.0,2
-6931.53,14520.6,-6225.93,-15623.64,0.0,0.0,0.0,0.0,2
-6930.18,14518.755,-6245.505,-15620.985,0.0,0.0,0.0,0.0,2
-6890.67,14637.645,-6131.43,-15489.315,0.0,0.0,0.0,0.0,2
-6890.355,14702.13,-6047.775,-15420.465,0.0,0.0,0.0,0.0,2
-6856.605,14687.1,-6082.065,-15450.57,0.0,0.0,0.0,0.0,2
-6798.375,14638.185,-6154.83,-15515.775,0.0,0.0,0.0,0.0,2
-6751.575,14653.035,-6137.82,-15507.18,0.0,0.0,0.0,0.0,2
-6687.405,14759.775,-6025.095,-15395.04,0.0,0.0,0.0,0.0,2
-6826.905,14610.555,-6184.17,-15547.32,0.0,0.0,0.0,0.0,2
-6891.525,14487.795,-6318.765,-15678.27,0.0,0.0,0.0,0.0,2
-6896.25,14458.545,-6361.92,-15720.93,0.0,0.0,0.0,0.0,2
-6960.06,14398.11,-6429.78,-15790.095,0.0,0.0,0.0,0.0,2
-7055.1,14437.8,-6333.975,-15689.565,0.0,0.0,0.0,0.0,2
-7041.015,14494.14,-6253.515,-15612.3,0.0,0.0,0.0,0.0,2
-7044.03,14467.545,-6302.88,-15673.905,0.0,0.0,0.0,0.0,2
-7112.34,14427.81,-6331.635,-15703.29,0.0,0.0,0.0,0.0,2
-6980.13,14591.295,-6158.61,-15530.355,0.0,0.0,0.0,0.0,2
-6831.855,14754.78,-5987.025,-15355.665,0.0,0.0,0.0,0.0,2
-6806.385,14733.855,-6014.655,-15370.425,0.0,0.0,0.0,0.0,2
-6883.65,14591.025,-6176.97,-15519.69,0.0,0.0,0.0,0.0,2
-6839.37,14608.8,-6168.015,-15514.47,0.0,0.0,0.0,0.0,2
-6973.245,14508.72,-6252.345,-15596.955,0.0,0.0,0.0,0.0,2
-6902.145,14621.31,-6125.49,-15476.49,0.0,0.0,0.0,0.0,2
-6803.955,14690.34,-6080.58,-15444.135,0.0,0.0,0.0,0.0,2
-6884.865,14545.98,-6236.775,-15583.41,0.0,0.0,0.0,0.0,2
-6962.22,14465.655,-6317.19,-15666.525,0.0,0.0,0.0,0.0,2
-6913.755,14539.725,-6237.135,-15605.055,0.0,0.0,0.0,0.0,2
-6843.78,14636.25,-6126.345,-15487.605,0.0,0.0,0.0,0.0,2
-6925.365,14555.565,-6202.035,-15564.105,0.0,0.0,0.0,0.0,2
-7019.775,14461.11,-6282.09,-15649.065,0.0,0.0,0.0,0.0,2
-6981.57,14512.545,-6251.4,-15609.24,0.0,0.0,0.0,0.0,2
-7036.29,14413.815,-6385.95,-15740.865,0.0,0.0,0.0,0.0,2
-7002.18,14434.695,-6357.915,-15713.28,0.0,0.0,0.0,0.0,2
-6918.885,14549.445,-6223.95,-15573.69,0.0,0.0,0.0,0.0,2
-6830.055,14659.47,-6103.89,-15447.06,0.0,0.0,0.0,0.0,2
-6863.31,14637.24,-6132.105,-15466.275,0.0,0.0,0.0,0.0,2
-6876.135,14642.325,-6136.65,-15454.26,0.0,0.0,0.0,0.0,2
-6888.78,14630.4,-6124.005,-15463.755,0.0,0.0,0.0,0.0,2
-6961.545,14522.805,-6230.295,-15592.005,0.0,0.0,0.0,0.0,2
-7027.02,14445.585,-6306.84,-15659.955,0.0,0.0,0.0,0.0,2
-6951.105,14524.56,-6230.25,-15595.155,0.0,0.0,0.0,0.0,2
-6896.115,14555.745,-6214.905,-15573.96,0.0,0.0,0.0,0.0,2
-6905.295,14557.23,-6243.12,-15577.605,0.0,0.0,0.0,0.0,2
-6884.19,14600.07,-6185.16,-15533.595,0.0,0.0,0.0,0.0,2
-6812.145,14668.11,-6096.915,-15453.09,0.0,0.0,0.0,0.0,2
-6772.095,14710.95,-6048.99,-15407.415,0.0,0.0,0.0,0.0,2
-6913.89,14553.18,-6214.05,-15565.77,0.0,0.0,0.0,0.0,2
-6977.025,14495.67,-6276.69,-15631.965,0.0,0.0,0.0,0.0,2
-6974.82,14530.545,-6236.235,-15593.895,0.0,0.0,0.0,0.0,2
-6868.17,14653.755,-6116.85,-15473.205,0.0,0.0,0.0,0.0,2
-6787.755,14697.585,-6080.22,-15427.89,0.0,0.0,0.0,0.0,2
-6882.435,14571.495,-6206.535,-15548.355,0.0,0.0,0.0,0.0,2
-7017.66,14458.005,-6311.52,-15648.525,0.0,0.0,0.0,0.0,2
-7077.285,14418.45,-6350.085,-15687.99,0.0,0.0,0.0,0.0,2
-7030.395,14437.395,-6338.97,-15678.135,0.0,0.0,0.0,0.0,2
-6951.105,14499.675,-6275.79,-15620.445,0.0,0.0,0.0,0.0,2
-6925.635,14562.225,-6189.84,-15541.11,0.0,0.0,0.0,0.0,2
-6922.53,14575.455,-6182.01,-15526.62,0.0,0.0,0.0,0.0,2
-6950.79,14538.375,-6243.075,-15559.29,0.0,0.0,0.0,0.0,2
-6973.2,14509.71,-6278.895,-15600.555,0.0,0.0,0.0,0.0,2
-6980.04,14490.315,-6304.905,-15654.42,0.0,0.0,0.0,0.0,2
-6941.295,14552.055,-6219.945,-15569.415,0.0,0.0,0.0,0.0,2
-6898.185,14619.645,-6159.645,-15495.03,0.0,0.0,0.0,0.0,2
-6900.165,14605.515,-6181.83,-15517.89,0.0,0.0,0.0,0.0,2
-6920.685,14567.895,-6191.685,-15542.775,0.0,0.0,0.0,0.0,2
-6922.665,14574.285,-6160.68,-15514.785,0.0,0.0,0.0,0.0,2
-6973.29,14512.815,-6251.94,-15596.28,0.0,0.0,0.0,0.0,2
-6925.05,14573.7,-6208.695,-15552.855,0.0,0.0,0.0,0.0,2
-6853.635,14649.21,-6122.655,-15463.08,0.0,0.0,0.0,0.0,2
-6867.27,14611.095,-6162.795,-15502.59,0.0,0.0,0.0,0.0,2
-6902.865,14569.65,-6199.695,-15541.65,0.0,0.0,0.0,0.0,2
-6923.34,14549.265,-6215.445,-15564.555,0.0,0.0,0.0,0.0,2
-6938.37,14539.86,-6226.515,-15567.21,0.0,0.0,0.0,0.0,2
-6843.42,14654.97,-6103.89,-15451.245,0.0,0.0,0.0,0.0,2
-6896.61,14604.75,-6171.03,-15524.415,0.0,0.0,0.0,0.0,2
-6995.835,14475.555,-6323.625,-15656.715,0.0,0.0,0.0,0.0,2
-6934.77,14549.175,-6219.855,-15540.615,0.0,0.0,0.0,0.0,2
-6943.59,14556.33,-6187.59,-15523.74,0.0,0.0,0.0,0.0,2
-6995.43,14495.67,-6240.555,-15572.835,0.0,0.0,0.0,0.0,2
-7003.17,14489.955,-6257.385,-15576.795,0.0,0.0,0.0,0.0,2
-6987.78,14496.975,-6268.185,-15590.34,0.0,0.0,0.0,0.0,2
-6897.645,14568.345,-6231.645,-15568.785,0.0,0.0,0.0,0.0,2
-6900.435,14569.695,-6226.605,-15546.87,0.0,0.0,0.0,0.0,2
-6943.995,14514.345,-6268.5,-15602.985,0.0,0.0,0.0,0.0,2
-6968.97,14488.11,-6277.5,-15621.48,0.0,0.0,0.0,0.0,2
-6948.855,14523.885,-6244.02,-15573.42,0.0,0.0,0.0,0.0,2
-6949.8,14540.085,-6224.805,-15552.72,0.0,0.0,0.0,0.0,2
-6959.745,14527.89,-6236.415,-15564.78,0.0,0.0,0.0,0.0,2
-6997.95,14494.545,-6271.605,-15598.125,0.0,0.0,0.0,0.0,2
-6974.415,14516.685,-6253.515,-15583.23,0.0,0.0,0.0,0.0,2
-6917.76,14572.575,-6195.42,-15526.44,0.0,0.0,0.0,0.0,2
-6921.72,14564.295,-6204.42,-15535.17,0.0,0.0,0.0,0.0,2
-6938.28,14553.45,-6214.41,-15543.27,0.0,0.0,0.0,0.0,2
-6920.37,14579.955,-6198.705,-15513.525,0.0,0.0,0.0,0.0,2
-6900.48,14604.21,-6184.215,-15492.87,0.0,0.0,0.0,0.0,2
-6968.07,14539.32,-6214.365,-15541.065,0.0,0.0,0.0,0.0,2
-6996.015,14502.825,-6230.565,-15561.99,0.0,0.0,0.0,0.0,2
-6948.63,14524.56,-6236.595,-15564.96,0.0,0.0,0.0,0.0,2
-6927.12,14552.91,-6222.555,-15558.255,0.0,0.0,0.0,0.0,2
-6899.445,14599.08,-6180.3,-15503.355,0.0,0.0,0.0,0.0,2
-6887.88,14598.27,-6176.97,-15488.325,0.0,0.0,0.0,0.0,2
-6886.215,14602.32,-6153.12,-15475.23,0.0,0.0,0.0,0.0,2
-6934.635,14564.205,-6187.005,-15516.18,0.0,0.0,0.0,0.0,2
-6984.27,14504.535,-6258.825,-15581.88,0.0,0.0,0.0,0.0,2
-6986.745,14505.345,-6257.52,-15577.83,0.0,0.0,0.0,0.0,2
-6913.845,14593.68,-6169.005,-15500.565,0.0,0.0,0.0,0.0,2
-6837.435,14668.83,-6095.115,-15429.69,0.0,0.0,0.0,0.0,2
-6920.73,14572.53,-6192.495,-15523.2,0.0,0.0,0.0,0.0,2
-6995.925,14498.595,-6268.68,-15597.855,0.0,0.0,0.0,0.0,2
-6923.16,14574.69,-6199.875,-15517.665,0.0,0.0,0.0,0.0,2
-6958.89,14543.955,-6201.63,-15522.93,0.0,0.0,0.0,0.0,2
-6970.86,14527.845,-6231.87,-15553.89,0.0,0.0,0.0,0.0,2
-6848.415,14668.38,-6118.425,-15434.19,0.0,0.0,0.0,0.0,2
-6817.23,14707.53,-6072.255,-15384.42,0.0,0.0,0.0,0.0,2
-6960.78,14550.255,-6211.62,-15542.64,0.0,0.0,0.0,0.0,2
-7032.78,14424.57,-6340.095,-15671.385,0.0,0.0,0.0,0.0,2
-7005.465,14457.87,-6310.665,-15642.315,0.0,0.0,0.0,0.0,2
-6985.35,14497.92,-6268.815,-15603.03,0.0,0.0,0.0,0.0,2
-6967.845,14518.035,-6260.58,-15579.72,0.0,0.0,0.0,0.0,2
-6956.91,14526.72,-6276.33,-15570.855,0.0,0.0,0.0,0.0,2
-6954.255,14535.855,-6249.465,-15548.175,0.0,0.0,0.0,0.0,2
-6972.39,14514.705,-6248.79,-15580.845,0.0,0.0,0.0,0.0,2
-6974.955,14514.93,-6237.495,-15561.09,0.0,0.0,0.0,0.0,2
-6970.905,14523.93,-6231.195,-15546.555,0.0,0.0,0.0,0.0,2
-6958.755,14537.295,-6229.665,-15548.67,0.0,0.0,0.0,0.0,2
-6953.805,14546.745,-6226.515,-15547.185,0.0,0.0,0.0,0.0,2
-6982.695,14529.015,-6228.405,-15544.98,0.0,0.0,0.0,0.0,2
-7013.79,14495.76,-6254.46,-15564.465,0.0,0.0,0.0,0.0,2
-6957.18,14542.38,-6227.55,-15527.16,0.0,0.0,0.0,0.0,2
-6887.655,14636.745,-6120.135,-15420.105,0.0,0.0,0.0,0.0,2
-6923.295,14602.455,-6159.87,-15469.02,0.0,0.0,0.0,0.0,2
-6949.44,14558.445,-6216.48,-15535.26,0.0,0.0,0.0,0.0,2
-6883.38,14622.345,-6168.375,-15481.845,0.0,0.0,0.0,0.0,2
-6921.36,14580.81,-6215.04,-15520.635,0.0,0.0,0.0,0.0,2
-6996.285,14488.56,-6281.64,-15592.005,0.0,0.0,0.0,0.0,2
-6985.89,14505.885,-6233.805,-15559.65,0.0,0.0,0.0,0.0,2
-6994.935,14511.285,-6209.145,-15536.07,0.0,0.0,0.0,0.0,2
-6958.44,14532.255,-6247.17,-15545.115,0.0,0.0,0.0,0.0,2
-6935.625,14545.53,-6259.185,-15551.865,0.0,0.0,0.0,0.0,2
-6954.03,14539.095,-6257.52,-15550.2,0.0,0.0,0.0,0.0,2
-6960.465,14546.43,-6232.635,-15542.82,0.0,0.0,0.0,0.0,2
-6983.37,14531.94,-6251.22,-15561.18,0.0,0.0,0.0,0.0,2
-6937.155,14569.56,-6198.615,-15505.2,0.0,0.0,0.0,0.0,2
-6881.13,14616.585,-6137.955,-15449.715,0.0,0.0,0.0,0.0,2
-6928.065,14581.755,-6177.015,-15486.255,0.0,0.0,0.0,0.0,2
-6986.34,14515.785,-6250.815,-15556.635,0.0,0.0,0.0,0.0,2
-6929.055,14573.61,-6194.475,-15496.695,0.0,0.0,0.0,0.0,2
-6917.85,14587.11,-6186.195,-15494.22,0.0,0.0,0.0,0.0,2
-6996.645,14503.005,-6264.045,-15571.08,0.0,0.0,0.0,0.0,2
-7032.69,14492.925,-6266.295,-15572.7,0.0,0.0,0.0,0.0,2
-7001.82,14550.165,-6203.79,-15511.545,0.0,0.0,0.0,0.0,2
-6937.695,14575.14,-6191.505,-15497.28,0.0,0.0,0.0,0.0,2
-6913.35,14563.17,-6215.805,-15514.515,0.0,0.0,0.0,0.0,2
-6928.65,14561.19,-6216.075,-15513.57,0.0,0.0,0.0,0.0,2
-6958.17,14539.68,-6233.49,-15535.755,0.0,0.0,0.0,0.0,2
-6917.4,14576.22,-6196.59,-15504.57,0.0,0.0,0.0,0.0,2
-6924.51,14568.345,-6202.8,-15499.17,0.0,0.0,0.0,0.0,2
-7005.645,14496.57,-6297.255,-15583.185,0.0,0.0,0.0,0.0,2
-7012.125,14499.63,-6283.62,-15591.195,0.0,0.0,0.0,0.0,2
-6982.335,14526.0,-6231.825,-15552.495,0.0,0.0,0.0,0.0,2
-6960.645,14545.17,-6220.215,-15518.835,0.0,0.0,0.0,0.0,2
-6951.51,14572.62,-6189.345,-15488.235,0.0,0.0,0.0,0.0,2
-6956.64,14571.495,-6191.775,-15490.44,0.0,0.0,0.0,0.0,2
-6938.055,14583.69,-6189.84,-15490.755,0.0,0.0,0.0,0.0,2
-6915.465,14617.26,-6148.395,-15448.68,0.0,0.0,0.0,0.0,2
-6989.13,14526.405,-6247.305,-15549.12,0.0,0.0,0.0,0.0,2
-6996.915,14499.99,-6282.045,-15589.17,0.0,0.0,0.0,0.0,2
-6957.0,14541.12,-6228.315,-15529.095,0.0,0.0,0.0,0.0,2
-6998.715,14516.505,-6252.84,-15532.83,0.0,0.0,0.0,0.0,2
-6992.415,14532.75,-6251.31,-15523.695,0.0,0.0,0.0,0.0,2
-6916.95,14617.035,-6167.205,-15475.32,0.0,0.0,0.0,0.0,2
-6963.39,14562.45,-6195.78,-15510.735,0.0,0.0,0.0,0.0,2
-6990.12,14532.885,-6252.03,-15545.43,0.0,0.0,0.0,0.0,2
-6961.995,14557.005,-6242.13,-15534.36,0.0,0.0,0.0,0.0,2
-6992.055,14515.425,-6262.245,-15569.19,0.0,0.0,0.0,0.0,2
-6992.415,14511.33,-6256.17,-15557.715,0.0,0.0,0.0,0.0,2
-6983.235,14529.33,-6241.545,-15541.74,0.0,0.0,0.0,0.0,2
-6976.98,14539.905,-6231.195,-15532.245,0.0,0.0,0.0,0.0,2
-6981.39,14535.135,-6233.715,-15536.07,0.0,0.0,0.0,0.0,2
-6978.33,14547.285,-6221.34,-15520.185,0.0,0.0,0.0,0.0,2
-6975.495,14551.92,-6255.495,-15531.21,0.0,0.0,0.0,0.0,2
-6918.03,14595.435,-6213.195,-15495.255,0.0,0.0,0.0,0.0,2
-6858.855,14659.425,-6100.83,-15407.64,0.0,0.0,0.0,0.0,2
-6928.38,14587.02,-6170.58,-15479.145,0.0,0.0,0.0,0.0,2
-7029.945,14475.42,-6299.145,-15604.245,0.0,0.0,0.0,0.0,2
-6974.865,14552.01,-6227.46,-15524.82,0.0,0.0,0.0,0.0,2
-6963.255,14563.305,-6214.275,-15506.595,0.0,0.0,0.0,0.0,2
-7006.905,14512.365,-6262.785,-15550.29,0.0,0.0,0.0,0.0,2
-7014.555,14501.385,-6273.0,-15565.68,0.0,0.0,0.0,0.0,2
-6992.055,14512.32,-6242.895,-15548.13,0.0,0.0,0.0,0.0,2
-6975.405,14528.61,-6211.035,-15512.58,0.0,0.0,0.0,0.0,2
-6979.545,14533.875,-6230.475,-15512.4,0.0,0.0,0.0,0.0,2
-7020.63,14502.825,-6285.915,-15572.97,0.0,0.0,0.0,0.0,2
-7011.495,14540.445,-6220.755,-15520.995,0.0,0.0,0.0,0.0,2
-6917.805,14627.34,-6138.0,-15432.525,0.0,0.0,0.0,0.0,2
-6878.79,14640.435,-6142.32,-15428.79,0.0,0.0,0.0,0.0,2
-6970.86,14535.54,-6246.765,-15533.595,0.0,0.0,0.0,0.0,2
-7011.045,14486.67,-6300.99,-15592.095,0.0,0.0,0.0,0.0,2
-6966.54,14541.705,-6240.06,-15533.19,0.0,0.0,0.0,0.0,2
-6947.325,14574.825,-6214.815,-15503.085,0.0,0.0,0.0,0.0,2
-6942.555,14586.03,-6231.555,-15506.37,0.0,0.0,0.0,0.0,2
-6961.77,14587.74,-6214.23,-15496.29,0.0,0.0,0.0,0.0,2
-6997.005,14548.455,-6218.415,-15519.915,0.0,0.0,0.0,0.0,2
-7000.29,14502.24,-6257.79,-15547.77,0.0,0.0,0.0,0.0,2
-6984.36,14509.62,-6262.02,-15544.98,0.0,0.0,0.0,0.0,2
-6985.8,14530.635,-6240.465,-15532.02,0.0,0.0,0.0,0.0,2
-6970.545,14557.095,-6212.34,-15510.555,0.0,0.0,0.0,0.0,2
-6951.6,14577.705,-6187.365,-15478.965,0.0,0.0,0.0,0.0,2
-6991.56,14525.055,-6243.615,-15531.3,0.0,0.0,0.0,0.0,2
-7042.995,14470.47,-6297.435,-15580.44,0.0,0.0,0.0,0.0,2
-6983.46,14535.81,-6240.69,-15518.385,0.0,0.0,0.0,0.0,2
-6949.665,14580.135,-6223.005,-15490.035,0.0,0.0,0.0,0.0,2
-6914.88,14607.81,-6187.32,-15462.225,0.0,0.0,0.0,0.0,2
-6913.8,14606.73,-6170.13,-15463.305,0.0,0.0,0.0,0.0,2
-6976.89,14546.565,-6227.64,-15520.77,0.0,0.0,0.0,0.0,2
-7009.695,14507.685,-6275.115,-15567.615,0.0,0.0,0.0,0.0,2
-6988.59,14532.795,-6237.945,-15531.345,0.0,0.0,0.0,0.0,2
-6980.985,14545.89,-6220.125,-15510.96,0.0,0.0,0.0,0.0,2
-6969.465,14563.08,-6223.59,-15492.015,0.0,0.0,0.0,0.0,2
-6972.21,14568.345,-6210.45,-15475.32,0.0,0.0,0.0,0.0,2
-6975.945,14563.575,-6218.325,-15485.445,0.0,0.0,0.0,0.0,2
-6942.42,14594.445,-6199.29,-15481.665,0.0,0.0,0.0,0.0,2
-6949.755,14565.96,-6251.13,-15513.165,0.0,0.0,0.0,0.0,2
-6979.14,14539.185,-6261.795,-15529.995,0.0,0.0,0.0,0.0,2
-6971.805,14554.845,-6214.815,-15519.78,0.0,0.0,0.0,0.0,2
-6971.625,14555.61,-6216.705,-15498.09,0.0,0.0,0.0,0.0,2
-6989.67,14537.295,-6242.49,-15511.455,0.0,0.0,0.0,0.0,2
-6981.705,14547.645,-6232.815,-15506.055,0.0,0.0,0.0,0.0,2
-6974.19,14557.995,-6227.64,-15506.415,0.0,0.0,0.0,0.0,2
-6988.725,14544.945,-6239.97,-15518.34,0.0,0.0,0.0,0.0,2
-6991.74,14537.88,-6246.99,-15528.555,0.0,0.0,0.0,0.0,2
-6974.1,14560.155,-6225.57,-15509.565,0.0,0.0,0.0,0.0,2
-6978.915,14553.405,-6238.8,-15518.475,0.0,0.0,0.0,0.0,2
-6982.2,14554.98,-6236.595,-15514.245,0.0,0.0,0.0,0.0,2
-6980.04,14562.0,-6232.86,-15499.35,0.0,0.0,0.0,0.0,2
-6925.5,14624.19,-6191.28,-15443.19,0.0,0.0,0.0,0.0,2
-6901.11,14669.46,-6125.265,-15397.605,0.0,0.0,0.0,0.0,2
-6969.015,14592.33,-6161.22,-15454.17,0.0,0.0,0.0,0.0,2
-7010.505,14510.835,-6254.595,-15525.99,0.0,0.0,0.0,0.0,2
-6974.28,14547.735,-6224.355,-15485.13,0.0,0.0,0.0,0.0,2
-6985.53,14533.47,-6255.45,-15530.265,0.0,0.0,0.0,0.0,2
-7007.13,14509.08,-6278.625,-15560.64,0.0,0.0,0.0,0.0,2
-6988.815,14527.53,-6255.09,-15521.535,0.0,0.0,0.0,0.0,2
-6967.395,14555.88,-6214.185,-15476.985,0.0,0.0,0.0,0.0,2
-7008.57,14534.235,-6220.755,-15496.74,0.0,0.0,0.0,0.0,2
-7013.97,14528.79,-6267.24,-15535.44,0.0,0.0,0.0,0.0,2
-6944.67,14589.405,-6214.68,-15473.43,0.0,0.0,0.0,0.0,2
-6930.72,14617.845,-6162.84,-15428.115,0.0,0.0,0.0,0.0,2
-6951.87,14588.46,-6211.935,-15485.355,0.0,0.0,0.0,0.0,2
-6958.89,14563.035,-6231.915,-15505.83,0.0,0.0,0.0,0.0,2
-6962.76,14564.88,-6231.78,-15505.155,0.0,0.0,0.0,0.0,2
-6959.88,14580.81,-6211.89,-15482.115,0.0,0.0,0.0,0.0,2
-6981.345,14557.41,-6235.335,-15496.11,0.0,0.0,0.0,0.0,2
-6982.605,14546.88,-6250.32,-15513.12,0.0,0.0,0.0,0.0,2
-6973.38,14561.145,-6228.54,-15495.75,0.0,0.0,0.0,0.0,2
-7000.965,14538.285,-6246.09,-15516.765,0.0,0.0,0.0,0.0,2
-7017.39,14531.985,-6279.39,-15528.555,0.0,0.0,0.0,0.0,2
-6983.955,14572.35,-6220.035,-15481.935,0.0,0.0,0.0,0.0,2
-6927.345,14614.695,-6166.935,-15448.68,0.0,0.0,0.0,0.0,2
-6952.59,14571.63,-6209.73,-15473.25,0.0,0.0,0.0,0.0,2
-7003.395,14526.135,-6267.33,-15514.245,0.0,0.0,0.0,0.0,2
-6985.755,14560.605,-6256.665,-15501.015,0.0,0.0,0.0,0.0,2
-6983.055,14555.25,-6241.365,-15500.655,0.0,0.0,0.0,0.0,2
-6974.955,14550.39,-6233.58,-15507.675,0.0,0.0,0.0,0.0,2
-6966.405,14562.72,-6225.165,-15493.32,0.0,0.0,0.0,0.0,2
-6977.79,14548.68,-6244.38,-15511.545,0.0,0.0,0.0,0.0,2
-6988.725,14541.03,-6250.77,-15518.07,0.0,0.0,0.0,0.0,2
-6980.13,14571.09,-6207.165,-15476.22,0.0,0.0,0.0,0.0,2
-6982.56,14576.67,-6207.21,-15458.265,0.0,0.0,0.0,0.0,2
-6977.115,14565.42,-6254.865,-15491.07,0.0,0.0,0.0,0.0,2
-6980.715,14562.18,-6236.325,-15506.415,0.0,0.0,0.0,0.0,2
-6972.57,14575.095,-6212.97,-15487.02,0.0,0.0,0.0,0.0,2
-6964.605,14591.61,-6195.69,-15463.35,0.0,0.0,0.0,0.0,2
-6973.875,14576.31,-6217.965,-15484.545,0.0,0.0,0.0,0.0,2
-6987.24,14557.275,-6240.96,-15506.01,0.0,0.0,0.0,0.0,2
-6979.815,14575.905,-6218.595,-15482.385,0.0,0.0,0.0,0.0,2
-7006.68,14547.06,-6247.8,-15506.28,0.0,0.0,0.0,0.0,2
-7005.78,14548.05,-6245.595,-15501.645,0.0,0.0,0.0,0.0,2
-6975.765,14571.855,-6224.265,-15477.525,0.0,0.0,0.0,0.0,2
-6954.705,14589.855,-6213.015,-15459.66,0.0,0.0,0.0,0.0,2
-6994.89,14550.705,-6264.045,-15506.64,0.0,0.0,0.0,0.0,2
-7005.06,14537.61,-6283.035,-15517.08,0.0,0.0,0.0,0.0,2
-6970.86,14570.955,-6232.32,-15491.43,0.0,0.0,0.0,0.0,2
-6942.465,14610.33,-6175.62,-15449.58,0.0,0.0,0.0,0.0,2
-6854.715,14709.78,-6077.205,-15339.24,0.0,0.0,0.0,0.0,2
-6887.025,14672.115,-6116.22,-15371.325,0.0,0.0,0.0,0.0,2
-7027.065,14517.09,-6285.78,-15533.1,0.0,0.0,0.0,0.0,2
-7054.56,14495.58,-6318.315,-15558.84,0.0,0.0,0.0,0.0,2
-7034.04,14524.785,-6287.22,-15528.87,0.0,0.0,0.0,0.0,2
-6985.71,14566.815,-6246.0,-15499.395,0.0,0.0,0.0,0.0,2
-6935.49,14606.19,-6212.07,-15471.45,0.0,0.0,0.0,0.0,2
-6956.145,14595.525,-6224.4,-15483.33,0.0,0.0,0.0,0.0,2
-7021.62,14533.965,-6283.53,-15545.925,0.0,0.0,0.0,0.0,2
-7033.005,14521.275,-6288.435,-15553.575,0.0,0.0,0.0,0.0,2
-6994.845,14563.395,-6228.315,-15499.215,0.0,0.0,0.0,0.0,2
-6968.25,14584.5,-6207.84,-15475.455,0.0,0.0,0.0,0.0,2
-6972.93,14587.515,-6216.525,-15464.115,0.0,0.0,0.0,0.0,2
-6979.14,14580.81,-6243.03,-15483.105,0.0,0.0,0.0,0.0,2
-6937.065,14620.5,-6192.18,-15443.055,0.0,0.0,0.0,0.0,2
-6956.28,14611.23,-6190.875,-15441.39,0.0,0.0,0.0,0.0,2
-7034.805,14528.25,-6289.83,-15519.69,0.0,0.0,0.0,0.0,2
-7029.36,14516.325,-6301.755,-15523.155,0.0,0.0,0.0,0.0,2
-6976.305,14567.805,-6191.865,-15443.82,0.0,0.0,0.0,0.0,2
-6973.92,14582.475,-6179.76,-15428.835,0.0,0.0,0.0,0.0,2
-6979.095,14576.31,-6241.5,-15486.345,0.0,0.0,0.0,0.0,2
-6977.925,14585.67,-6216.345,-15464.97,0.0,0.0,0.0,0.0,2
-6982.83,14575.005,-6220.08,-15461.955,0.0,0.0,0.0,0.0,2
-6995.34,14558.31,-6268.365,-15495.795,0.0,0.0,0.0,0.0,2
-6987.51,14573.34,-6254.28,-15473.385,0.0,0.0,0.0,0.0,2
-6943.995,14616.36,-6193.845,-15436.845,0.0,0.0,0.0,0.0,2
-6935.22,14639.085,-6138.135,-15391.665,0.0,0.0,0.0,0.0,2
-6913.305,14659.965,-6138.945,-15378.615,0.0,0.0,0.0,0.0,2
-6967.44,14581.8,-6241.23,-15473.115,0.0,0.0,0.0,0.0,2
-7011.99,14523.525,-6287.67,-15539.31,0.0,0.0,0.0,0.0,2
-7007.22,14541.255,-6242.22,-15498.0,0.0,0.0,0.0,0.0,2
-7001.82,14564.43,-6201.54,-15453.36,0.0,0.0,0.0,0.0,2
-6991.875,14570.28,-6213.465,-15471.54,0.0,0.0,0.0,0.0,2
-6967.08,14579.82,-6276.015,-15510.06,0.0,0.0,0.0,0.0,2
-6881.265,14685.48,-6118.29,-15348.87,0.0,0.0,0.0,0.0,2
-6867.18,14708.52,-6076.395,-15315.66,0.0,0.0,0.0,0.0,2
-7020.495,14555.925,-6240.24,-15481.44,0.0,0.0,0.0,0.0,2
-7090.965,14479.56,-6321.555,-15560.415,0.0,0.0,0.0,0.0,2
-7032.465,14516.775,-6291.405,-15532.245,0.0,0.0,0.0,0.0,2
-6997.185,14548.95,-6261.705,-15501.24,0.0,0.0,0.0,0.0,2
-6969.015,14590.08,-6215.4,-15453.405,0.0,0.0,0.0,0.0,2
-6976.71,14579.775,-6222.15,-15459.3,0.0,0.0,0.0,0.0,2
-6977.34,14583.555,-6211.215,-15442.74,0.0,0.0,0.0,0.0,2
-6977.115,14587.65,-6228.99,-15449.4,0.0,0.0,0.0,0.0,2
-7002.495,14561.685,-6273.27,-15473.745,0.0,0.0,0.0,0.0,2
-7007.13,14552.145,-6268.095,-15491.43,0.0,0.0,0.0,0.0,2
-6990.615,14570.505,-6240.24,-15485.985,0.0,0.0,0.0,0.0,2
-6981.48,14597.685,-6216.03,-15453.675,0.0,0.0,0.0,0.0,2
-6982.425,14584.995,-6234.345,-15472.89,0.0,0.0,0.0,0.0,2
-6964.29,14586.03,-6227.235,-15467.04,0.0,0.0,0.0,0.0,2
-6947.685,14597.415,-6216.93,-15455.34,0.0,0.0,0.0,0.0,2
-6954.03,14600.52,-6213.195,-15450.12,0.0,0.0,0.0,0.0,2
-6956.055,14604.3,-6204.915,-15445.935,0.0,0.0,0.0,0.0,2
-6997.68,14558.94,-6257.25,-15498.45,0.0,0.0,0.0,0.0,2
-6982.065,14587.515,-6217.965,-15462.09,0.0,0.0,0.0,0.0,2
-6959.475,14618.88,-6165.18,-15418.845,0.0,0.0,0.0,0.0,2
-6904.89,14677.65,-6104.79,-15341.535,0.0,0.0,0.0,0.0,2
-6875.46,14705.505,-6086.43,-15319.395,0.0,0.0,0.0,0.0,2
-7015.95,14545.035,-6281.415,-15501.195,0.0,0.0,0.0,0.0,2
-7113.105,14436.855,-6392.07,-15604.065,0.0,0.0,0.0,0.0,2
-7036.02,14514.84,-6296.895,-15525.09,0.0,0.0,0.0,0.0,2
-6980.4,14581.98,-6225.615,-15452.955,0.0,0.0,0.0,0.0,2
-6953.49,14617.305,-6196.95,-15431.04,0.0,0.0,0.0,0.0,2
-6967.44,14599.125,-6216.345,-15459.57,0.0,0.0,0.0,0.0,2
-6978.33,14601.33,-6226.245,-15457.77,0.0,0.0,0.0,0.0,2
-6931.98,14656.365,-6170.31,-15402.69,0.0,0.0,0.0,0.0,2
-6962.94,14597.91,-6197.895,-15463.08,0.0,0.0,0.0,0.0,2
-7034.49,14515.605,-6271.155,-15525.315,0.0,0.0,0.0,0.0,2
-7029.855,14524.65,-6287.805,-15506.145,0.0,0.0,0.0,0.0,2
-7001.82,14569.11,-6231.105,-15457.5,0.0,0.0,0.0,0.0,2
-6973.065,14604.795,-6206.895,-15436.575,0.0,0.0,0.0,0.0,2
-6975.225,14595.93,-6241.635,-15470.145,0.0,0.0,0.0,0.0,2
-7013.745,14557.14,-6254.865,-15493.77,0.0,0.0,0.0,0.0,2
-7019.19,14559.03,-6233.13,-15479.145,0.0,0.0,0.0,0.0,2
-6979.095,14603.085,-6213.645,-15443.82,0.0,0.0,0.0,0.0,2
-6987.465,14589.495,-6242.175,-15452.415,0.0,0.0,0.0,0.0,2
-6985.98,14586.21,-6224.49,-15440.265,0.0,0.0,0.0,0.0,2
-6982.155,14584.995,-6212.835,-15439.14,0.0,0.0,0.0,0.0,2
-6944.805,14622.39,-6172.29,-15400.485,0.0,0.0,0.0,0.0,2
-6941.52,14637.285,-6174.0,-15410.925,0.0,0.0,0.0,0.0,2
-6934.86,14645.295,-6193.665,-15414.03,0.0,0.0,0.0,0.0,2
-6970.41,14610.915,-6204.87,-15438.015,0.0,0.0,0.0,0.0,2
-7040.295,14536.98,-6267.87,-15503.22,0.0,0.0,0.0,0.0,2
-7037.325,14540.805,-6274.89,-15503.985,0.0,0.0,0.0,0.0,2
-7039.44,14553.18,-6261.075,-15486.975,0.0,0.0,0.0,0.0,2
-7007.13,14597.145,-6213.42,-15443.82,0.0,0.0,0.0,0.0,2
-6892.2,14690.835,-6117.705,-15351.57,0.0,0.0,0.0,0.0,2
-6893.55,14663.43,-6151.365,-15378.03,0.0,0.0,0.0,0.0,2
-6996.24,14563.845,-6252.03,-15478.92,0.0,0.0,0.0,0.0,2
-7016.4,14549.715,-6270.48,-15492.69,0.0,0.0,0.0,0.0,2
-6998.985,14574.555,-6230.61,-15456.33,0.0,0.0,0.0,0.0,2
-6980.31,14606.955,-6177.33,-15422.175,0.0,0.0,0.0,0.0,2
-6974.64,14604.255,-6221.07,-15434.82,0.0,0.0,0.0,0.0,2
-6977.745,14592.195,-6229.53,-15438.555,0.0,0.0,0.0,0.0,2
-6947.82,14623.605,-6184.17,-15398.1,0.0,0.0,0.0,0.0,2
-6951.87,14625.27,-6185.295,-15399.18,0.0,0.0,0.0,0.0,2
-6977.655,14595.345,-6229.485,-15465.735,0.0,0.0,0.0,0.0,2
-7002.18,14573.115,-6247.755,-15482.43,0.0,0.0,0.0,0.0,2
-7005.42,14578.83,-6239.25,-15466.365,0.0,0.0,0.0,0.0,2
-6990.975,14589.585,-6228.72,-15450.255,0.0,0.0,0.0,0.0,2
-6990.84,14582.61,-6232.365,-15450.39,0.0,0.0,0.0,0.0,2
-7002.63,14571.765,-6259.32,-15465.87,0.0,0.0,0.0,0.0,2
-7028.055,14548.005,-6323.265,-15510.87,0.0,0.0,0.0,0.0,2
-7015.725,14565.06,-6265.8,-15490.305,0.0,0.0,0.0,0.0,2
-6980.67,14598.315,-6185.52,-15442.875,0.0,0.0,0.0,0.0,2
-6957.18,14629.14,-6142.635,-15391.62,0.0,0.0,0.0,0.0,2
-6928.2,14654.52,-6149.475,-15380.595,0.0,0.0,0.0,0.0,2
-6969.915,14619.825,-6184.845,-15405.615,0.0,0.0,0.0,0.0,2
-6997.05,14576.085,-6245.01,-15458.04,0.0,0.0,0.0,0.0,2
-6984.315,14588.505,-6207.12,-15418.17,0.0,0.0,0.0,0.0,2
-6962.67,14609.97,-6193.845,-15414.3,0.0,0.0,0.0,0.0,2
-6970.545,14602.275,-6217.065,-15437.07,0.0,0.0,0.0,0.0,2
-6982.2,14594.58,-6227.73,-15451.92,0.0,0.0,0.0,0.0,2
-6953.58,14629.995,-6184.17,-15416.64,0.0,0.0,0.0,0.0,2
-6968.61,14614.56,-6193.44,-15428.205,0.0,0.0,0.0,0.0,2
-7003.53,14579.19,-6223.86,-15447.555,0.0,0.0,0.0,0.0,2
-7030.71,14549.535,-6246.72,-15472.755,0.0,0.0,0.0,0.0,2
-7027.245,14557.635,-6225.39,-15466.365,0.0,0.0,0.0,0.0,2
-6997.005,14590.395,-6203.115,-15433.335,0.0,0.0,0.0,0.0,2
-6992.865,14591.295,-6231.285,-15442.965,0.0,0.0,0.0,0.0,2
-6996.105,14582.43,-6240.645,-15453.495,0.0,0.0,0.0,0.0,2
-6957.765,14616.405,-6196.77,-15419.295,0.0,0.0,0.0,0.0,2
-6948.225,14625.81,-6206.85,-15410.88,0.0,0.0,0.0,0.0,2
-6994.89,14579.955,-6237.495,-15448.095,0.0,0.0,0.0,0.0,2
-7005.42,14569.11,-6234.525,-15473.34,0.0,0.0,0.0,0.0,2
-6967.485,14611.635,-6196.995,-15423.795,0.0,0.0,0.0,0.0,2
-6949.755,14632.47,-6179.85,-15398.55,0.0,0.0,0.0,0.0,2
-6987.195,14602.905,-6210.585,-15429.015,0.0,0.0,0.0,0.0,2
-7019.82,14571.09,-6254.82,-15465.375,0.0,0.0,0.0,0.0,2
-7034.31,14551.38,-6264.765,-15471.765,0.0,0.0,0.0,0.0,2
-7048.125,14549.67,-6245.145,-15440.76,0.0,0.0,0.0,0.0,2
-7006.095,14595.885,-6229.935,-15414.12,0.0,0.0,0.0,0.0,2
-6926.04,14652.72,-6184.44,-15419.205,0.0,0.0,0.0,0.0,2
-6915.24,14657.805,-6146.325,-15391.62,0.0,0.0,0.0,0.0,2
-6975.225,14604.03,-6196.365,-15424.47,0.0,0.0,0.0,0.0,2
-7015.86,14565.96,-6246.405,-15477.435,0.0,0.0,0.0,0.0,2
-7001.235,14598.18,-6210.405,-15437.655,0.0,0.0,0.0,0.0,2
-6989.535,14600.43,-6217.875,-15442.29,0.0,0.0,0.0,0.0,2
-7000.47,14579.505,-6251.805,-15475.5,0.0,0.0,0.0,0.0,2
-6980.445,14607.315,-6208.425,-15440.49,0.0,0.0,0.0,0.0,2
-6935.22,14660.46,-6147.135,-15386.4,0.0,0.0,0.0,0.0,2
-6948.9,14655.06,-6140.115,-15369.21,0.0,0.0,0.0,0.0,2
-6969.96,14646.735,-6156.225,-15382.17,0.0,0.0,0.0,0.0,2
-6988.41,14616.045,-6196.095,-15425.73,0.0,0.0,0.0,0.0,2
-7041.69,14531.805,-6277.545,-15506.145,0.0,0.0,0.0,0.0,2
-7007.94,14575.41,-6231.78,-15465.555,0.0,0.0,0.0,0.0,2
-6957.18,14632.11,-6190.92,-15419.745,0.0,0.0,0.0,0.0,2
-6989.67,14594.085,-6230.34,-15461.325,0.0,0.0,0.0,0.0,2
-7013.925,14570.595,-6246.495,-15478.47,0.0,0.0,0.0,0.0,2
-7006.995,14581.44,-6235.515,-15456.87,0.0,0.0,0.0,0.0,2
-7001.19,14592.51,-6218.1,-15425.955,0.0,0.0,0.0,0.0,2
-6965.775,14618.205,-6182.685,-15401.34,0.0,0.0,0.0,0.0,2
-6956.865,14631.975,-6138.135,-15379.785,0.0,0.0,0.0,0.0,2
-7003.8,14587.155,-6223.725,-15442.515,0.0,0.0,0.0,0.0,2
-7054.29,14534.37,-6345.72,-15549.12,0.0,0.0,0.0,0.0,2
-7025.31,14569.335,-6282.495,-15505.29,0.0,0.0,0.0,0.0,2
-6966.99,14625.315,-6209.82,-15439.86,0.0,0.0,0.0,0.0,2
-6972.165,14625.405,-6190.515,-15422.895,0.0,0.0,0.0,0.0,2
-6990.12,14602.005,-6189.57,-15413.58,0.0,0.0,0.0,0.0,2
-7006.86,14589.315,-6203.52,-15414.75,0.0,0.0,0.0,0.0,2
-7022.97,14573.16,-6233.085,-15445.17,0.0,0.0,0.0,0.0,2
-6990.3,14598.135,-6211.89,-15430.635,0.0,0.0,0.0,0.0,2
-6938.865,14656.41,-6143.22,-15357.78,0.0,0.0,0.0,0.0,2
-6966.99,14633.415,-6160.41,-15374.115,0.0,0.0,0.0,0.0,2
-6993.945,14601.24,-6214.005,-15440.355,0.0,0.0,0.0,0.0,2
-6977.16,14613.615,-6209.235,-15437.475,0.0,0.0,0.0,0.0,2
-7000.65,14591.115,-6226.875,-15442.515,0.0,0.0,0.0,0.0,2
-7024.86,14568.75,-6246.63,-15453.855,0.0,0.0,0.0,0.0,2
-7014.24,14586.93,-6222.96,-15434.055,0.0,0.0,0.0,0.0,2
-6996.555,14602.095,-6228.72,-15433.785,0.0,0.0,0.0,0.0,2
-7003.44,14594.04,-6248.655,-15446.52,0.0,0.0,0.0,0.0,2
-7005.105,14593.05,-6254.505,-15455.79,0.0,0.0,0.0,0.0,2
-6999.75,14592.33,-6258.42,-15461.19,0.0,0.0,0.0,0.0,2
-6995.835,14600.7,-6234.525,-15438.33,0.0,0.0,0.0,0.0,2
-6989.49,14611.635,-6205.23,-15415.65,0.0,0.0,0.0,0.0,2
-7003.665,14597.325,-6210.72,-15426.045,0.0,0.0,0.0,0.0,2
-6996.06,14610.105,-6201.855,-15401.52,0.0,0.0,0.0,0.0,2
-6980.13,14638.41,-6164.955,-15358.68,0.0,0.0,0.0,0.0,2
-7012.215,14610.285,-6201.675,-15416.145,0.0,0.0,0.0,0.0,2
-7035.525,14574.195,-6240.105,-15469.83,0.0,0.0,0.0,0.0,2
-6999.075,14600.475,-6212.835,-15433.02,0.0,0.0,0.0,0.0,2
-7002.63,14611.59,-6208.605,-15414.885,0.0,0.0,0.0,0.0,2
-6984.18,14619.285,-6185.34,-15416.865,0.0,0.0,0.0,0.0,2
-6970.905,14605.47,-6197.76,-15423.615,0.0,0.0,0.0,0.0,2
-6987.735,14600.61,-6204.195,-15413.355,0.0,0.0,0.0,0.0,2
-6994.395,14606.235,-6207.615,-15414.255,0.0,0.0,0.0,0.0,2
-7011.225,14597.46,-6219.54,-15429.645,0.0,0.0,0.0,0.0,2
-6992.685,14619.24,-6196.05,-15409.08,0.0,0.0,0.0,0.0,2
-6961.545,14646.195,-6170.13,-15385.815,0.0,0.0,0.0,0.0,2
-6960.78,14648.4,-6168.51,-15384.465,0.0,0.0,0.0,0.0,2
-6991.875,14619.555,-6197.13,-15411.33,0.0,0.0,0.0,0.0,2
-6983.595,14625.585,-6193.935,-15405.03,0.0,0.0,0.0,0.0,2
-6996.645,14608.485,-6210.675,-15414.705,0.0,0.0,0.0,0.0,2
-7007.58,14601.105,-6211.62,-15414.435,0.0,0.0,0.0,0.0,2
-7010.685,14591.52,-6221.475,-15425.055,0.0,0.0,0.0,0.0,2
-7016.67,14585.535,-6225.255,-15433.65,0.0,0.0,0.0,0.0,2
-7002.315,14602.185,-6190.605,-15406.83,0.0,0.0,0.0,0.0,2
-7005.78,14593.095,-6203.565,-15408.72,0.0,0.0,0.0,0.0,2
-7008.21,14588.28,-6248.295,-15453.765,0.0,0.0,0.0,0.0,2
-6964.74,14639.58,-6190.74,-15407.55,0.0,0.0,0.0,0.0,2
-6902.64,14711.985,-6110.595,-15317.01,0.0,0.0,0.0,0.0,2
-6935.94,14683.725,-6143.04,-15333.39,0.0,0.0,0.0,0.0,2
-7039.125,14559.345,-6269.265,-15465.195,0.0,0.0,0.0,0.0,2
-7047.72,14543.955,-6264.045,-15476.94,0.0,0.0,0.0,0.0,2
-7022.205,14579.1,-6222.465,-15422.445,0.0,0.0,0.0,0.0,2
-7015.23,14585.49,-6244.785,-15453.045,0.0,0.0,0.0,0.0,2
-7020.135,14577.12,-6249.465,-15466.77,0.0,0.0,0.0,0.0,2
-7021.215,14577.705,-6246.45,-15457.86,0.0,0.0,0.0,0.0,2
-7013.295,14589.81,-6234.165,-15438.195,0.0,0.0,0.0,0.0,2
-7005.6,14597.91,-6232.23,-15423.3,0.0,0.0,0.0,0.0,2
-7001.955,14602.32,-6226.83,-15418.755,0.0,0.0,0.0,0.0,2
-6988.455,14620.995,-6206.67,-15402.105,0.0,0.0,0.0,0.0,2
-6996.06,14608.98,-6230.25,-15423.57,0.0,0.0,0.0,0.0,2
-7037.82,14573.745,-6259.59,-15456.645,0.0,0.0,0.0,0.0,2
-7040.925,14585.13,-6211.755,-15424.155,0.0,0.0,0.0,0.0,2
-6968.565,14645.385,-6158.565,-15355.755,0.0,0.0,0.0,0.0,2
-6948.0,14652.72,-6188.49,-15364.89,0.0,0.0,0.0,0.0,2
-6999.705,14609.205,-6238.395,-15422.715,0.0,0.0,0.0,0.0,2
-7011.315,14593.995,-6247.395,-15461.055,0.0,0.0,0.0,0.0,2
-6987.24,14621.085,-6205.725,-15416.64,0.0,0.0,0.0,0.0,2
-6967.17,14649.795,-6174.9,-15376.77,0.0,0.0,0.0,0.0,2
-6978.24,14627.97,-6187.995,-15396.93,0.0,0.0,0.0,0.0,2
-7017.48,14589.135,-6219.72,-15432.885,0.0,0.0,0.0,0.0,2
-7004.25,14608.845,-6201.855,-15406.47,0.0,0.0,0.0,0.0,2
-6959.115,14656.41,-6174.81,-15372.81,0.0,0.0,0.0,0.0,2
-6957.495,14653.26,-6185.835,-15375.735,0.0,0.0,0.0,0.0,2
-6998.535,14607.045,-6227.685,-15401.385,0.0,0.0,0.0,0.0,2
-7033.545,14575.545,-6223.275,-15403.455,0.0,0.0,0.0,0.0,2
-7013.79,14600.52,-6188.85,-15405.345,0.0,0.0,0.0,0.0,2
-7021.485,14597.055,-6209.595,-15418.17,0.0,0.0,0.0,0.0,2
-7022.34,14599.08,-6217.2,-15415.47,0.0,0.0,0.0,0.0,2
-7000.515,14610.285,-6215.76,-15410.7,0.0,0.0,0.0,0.0,2
-6990.93,14612.625,-6208.695,-15399.315,0.0,0.0,0.0,0.0,2
-7008.21,14607.27,-6199.695,-15380.55,0.0,0.0,0.0,0.0,2
-7004.43,14613.075,-6201.675,-15376.995,0.0,0.0,0.0,0.0,2
-7002.99,14605.29,-6236.325,-15432.165,0.0,0.0,0.0,0.0,2
-7011.225,14603.265,-6222.06,-15422.445,0.0,0.0,0.0,0.0,2
-7000.785,14612.13,-6220.26,-15404.76,0.0,0.0,0.0,0.0,2
-6967.35,14651.91,-6182.505,-15372.27,0.0,0.0,0.0,0.0,2
-6967.665,14654.34,-6170.76,-15369.255,0.0,0.0,0.0,0.0,2
-7024.995,14578.92,-6244.29,-15440.31,0.0,0.0,0.0,0.0,2
-7025.355,14581.71,-6238.44,-15430.725,0.0,0.0,0.0,0.0,2
-7001.955,14619.195,-6186.42,-15381.18,0.0,0.0,0.0,0.0,2
-6979.14,14662.35,-6135.39,-15332.895,0.0,0.0,0.0,0.0,2
-6974.91,14665.77,-6152.22,-15340.095,0.0,0.0,0.0,0.0,2
-6947.775,14668.38,-6151.68,-15355.395,0.0,0.0,0.0,0.0,2
-6957.855,14647.005,-6177.105,-15380.28,0.0,0.0,0.0,0.0,2
-7035.165,14566.77,-6279.75,-15460.65,0.0,0.0,0.0,0.0,2
-7039.35,14574.645,-6265.53,-15442.515,0.0,0.0,0.0,0.0,2
-7014.6,14601.06,-6240.915,-15418.08,0.0,0.0,0.0,0.0,2
-7033.41,14581.17,-6251.985,-15434.145,0.0,0.0,0.0,0.0,2
-7051.68,14561.01,-6267.555,-15449.085,0.0,0.0,0.0,0.0,2
-7034.265,14578.695,-6256.125,-15422.58,0.0,0.0,0.0,0.0,2
-7018.29,14610.465,-6210.09,-15395.58,0.0,0.0,0.0,0.0,2
-6976.755,14662.485,-6142.455,-15340.95,0.0,0.0,0.0,0.0,2
-6936.39,14681.43,-6154.2,-15335.37,0.0,0.0,0.0,0.0,2
-6979.815,14636.07,-6200.91,-15399.36,0.0,0.0,0.0,0.0,2
-6984.945,14632.02,-6198.615,-15397.245,0.0,0.0,0.0,0.0,2
-7011.54,14595.345,-6265.62,-15425.46,0.0,0.0,0.0,0.0,2
-7015.455,14595.525,-6231.06,-15410.52,0.0,0.0,0.0,0.0,2
-7016.355,14607.63,-6185.97,-15384.87,0.0,0.0,0.0,0.0,2
-7013.115,14615.46,-6185.43,-15377.895,0.0,0.0,0.0,0.0,2
-6976.485,14654.385,-6160.005,-15354.945,0.0,0.0,0.0,0.0,2
-6967.35,14662.935,-6150.105,-15338.88,0.0,0.0,0.0,0.0,2
-7038.09,14582.925,-6236.28,-15410.205,0.0,0.0,0.0,0.0,2
-7006.905,14619.465,-6222.33,-15408.45,0.0,0.0,0.0,0.0,2
-7000.965,14628.69,-6206.355,-15390.18,0.0,0.0,0.0,0.0,2
-7003.845,14614.83,-6209.73,-15394.005,0.0,0.0,0.0,0.0,2
-6991.56,14622.21,-6219.99,-15409.935,0.0,0.0,0.0,0.0,2
-6983.325,14638.635,-6206.31,-15392.295,0.0,0.0,0.0,0.0,2
-7000.47,14624.01,-6216.48,-15396.75,0.0,0.0,0.0,0.0,2
-7056.945,14570.46,-6258.015,-15442.785,0.0,0.0,0.0,0.0,2
-7044.165,14587.92,-6230.295,-15425.055,0.0,0.0,0.0,0.0,2
-6990.435,14626.98,-6213.24,-15404.85,0.0,0.0,0.0,0.0,2
-6951.87,14669.145,-6157.89,-15346.08,0.0,0.0,0.0,0.0,2
-6954.39,14674.68,-6147.81,-15326.46,0.0,0.0,0.0,0.0,2
-6999.795,14634.045,-6191.415,-15368.67,0.0,0.0,0.0,0.0,2
-7036.695,14598.18,-6228.045,-15400.485,0.0,0.0,0.0,0.0,2
-7035.57,14595.795,-6241.5,-15402.915,0.0,0.0,0.0,0.0,2
-7023.555,14604.255,-6221.385,-15400.44,0.0,0.0,0.0,0.0,2
-7001.235,14622.21,-6186.42,-15381.99,0.0,0.0,0.0,0.0,2
-7008.39,14617.53,-6208.245,-15382.395,0.0,0.0,0.0,0.0,2
-7025.715,14600.97,-6257.97,-15433.65,0.0,0.0,0.0,0.0,2
-7035.57,14595.705,-6237.99,-15423.525,0.0,0.0,0.0,0.0,2
-7017.39,14621.22,-6195.735,-15381.495,0.0,0.0,0.0,0.0,2
-6988.365,14642.73,-6187.095,-15357.51,0.0,0.0,0.0,0.0,2
-6985.17,14633.91,-6203.025,-15371.055,0.0,0.0,0.0,0.0,2
-6990.975,14645.52,-6186.375,-15359.85,0.0,0.0,0.0,0.0,2
-7017.48,14636.97,-6189.66,-15368.355,0.0,0.0,0.0,0.0,2
-7016.49,14632.335,-6184.755,-15359.13,0.0,0.0,0.0,0.0,2
-6979.77,14643.72,-6183.405,-15345.72,0.0,0.0,0.0,0.0,2
-6985.62,14633.955,-6231.195,-15420.015,0.0,0.0,0.0,0.0,2
-7013.295,14615.415,-6235.38,-15438.375,0.0,0.0,0.0,0.0,2
-7005.375,14630.355,-6198.3,-15385.365,0.0,0.0,0.0,0.0,2
-7002.9,14635.575,-6197.265,-15372.495,0.0,0.0,0.0,0.0,2
-7038.27,14599.485,-6254.865,-15412.455,0.0,0.0,0.0,0.0,2
-7020.945,14615.28,-6228.18,-15403.275,0.0,0.0,0.0,0.0,2
-6973.245,14659.785,-6162.165,-15362.73,0.0,0.0,0.0,0.0,2
-6989.265,14640.93,-6177.15,-15364.08,0.0,0.0,0.0,0.0,2
-6996.015,14635.305,-6174.315,-15351.93,0.0,0.0,0.0,0.0,2
-7003.665,14625.72,-6215.13,-15379.245,0.0,0.0,0.0,0.0,2
-7018.515,14617.44,-6223.815,-15398.28,0.0,0.0,0.0,0.0,2
-7016.13,14623.74,-6212.925,-15383.43,0.0,0.0,0.0,0.0,2
-7010.415,14633.955,-6214.545,-15380.91,0.0,0.0,0.0,0.0,2
-7000.56,14653.26,-6194.205,-15363.765,0.0,0.0,0.0,0.0,2
-6978.33,14663.475,-6185.745,-15363.315,0.0,0.0,0.0,0.0,2
-6977.52,14653.935,-6191.505,-15373.845,0.0,0.0,0.0,0.0,2
-7000.74,14638.185,-6203.115,-15381.27,0.0,0.0,0.0,0.0,2
-6997.365,14647.995,-6198.93,-15363.54,0.0,0.0,0.0,0.0,2
-7004.205,14634.18,-6223.23,-15378.795,0.0,0.0,0.0,0.0,2
-7030.08,14607.495,-6251.355,-15411.42,0.0,0.0,0.0,0.0,2
-7030.08,14607.495,-6251.355,-15411.42,0.0,0.0,0.0,0.0,2
-7030.08,14607.495,-6251.355,-15411.42,0.0,0.0,0.0,0.0,2
-7030.08,14607.495,-6251.355,-15411.42,0.0,0.0,0.0,0.0,2
-7004.97,14650.245,-6170.22,-15346.08,0.0,0.0,0.0,0.0,2
-7034.22,14622.12,-6188.04,-15341.13,0.0,0.0,0.0,0.0,2
-7046.415,14602.77,-6214.365,-15365.97,0.0,0.0,0.0,0.0,2
-7010.055,14625.81,-6222.69,-15398.19,0.0,0.0,0.0,0.0,2
-7001.865,14631.66,-6215.985,-15390.045,0.0,0.0,0.0,0.0,2
-7011.855,14631.84,-6216.84,-15387.615,0.0,0.0,0.0,0.0,2
-7015.815,14630.76,-6219.72,-15395.94,0.0,0.0,0.0,0.0,2
-7004.79,14640.21,-6210.855,-15388.47,0.0,0.0,0.0,0.0,2
-6996.195,14646.555,-6197.805,-15370.47,0.0,0.0,0.0,0.0,2
-7007.04,14640.48,-6198.165,-15367.41,0.0,0.0,0.0,0.0,2
-7014.825,14646.6,-6195.645,-15350.535,0.0,0.0,0.0,0.0,2
-6997.68,14660.595,-6182.37,-15333.3,0.0,0.0,0.0,0.0,2
-7016.265,14629.365,-6202.125,-15378.39,0.0,0.0,0.0,0.0,2
-7033.905,14615.505,-6208.56,-15387.255,0.0,0.0,0.0,0.0,2
-7011.585,14646.33,-6187.23,-15349.77,0.0,0.0,0.0,0.0,2
-6990.615,14673.15,-6130.665,-15290.775,0.0,0.0,0.0,0.0,2
-7003.755,14646.78,-6194.835,-15338.88,0.0,0.0,0.0,0.0,2
-7030.08,14613.3,-6269.805,-15443.505,0.0,0.0,0.0,0.0,2
-6984.405,14680.845,-6167.34,-15347.34,0.0,0.0,0.0,0.0,2
-6937.38,14723.595,-6124.95,-15291.495,0.0,0.0,0.0,0.0,2
-7014.15,14620.905,-6256.305,-15406.155,0.0,0.0,0.0,0.0,2
-7079.58,14559.66,-6301.755,-15450.075,0.0,0.0,0.0,0.0,2
-7069.14,14582.61,-6256.53,-15428.745,0.0,0.0,0.0,0.0,2
-7039.125,14606.415,-6228.405,-15401.295,0.0,0.0,0.0,0.0,2
-7008.75,14633.145,-6207.885,-15381.045,0.0,0.0,0.0,0.0,2
-7002.0,14646.33,-6192.225,-15365.79,0.0,0.0,0.0,0.0,2
-6986.745,14668.2,-6167.7,-15338.655,0.0,0.0,0.0,0.0,2
-7002.855,14646.33,-6197.4,-15360.21,0.0,0.0,0.0,0.0,2
-7030.17,14612.085,-6246.63,-15407.19,0.0,0.0,0.0,0.0,2
-6986.565,14671.125,-6180.12,-15339.915,0.0,0.0,0.0,0.0,2
-6981.3,14670.765,-6177.375,-15326.37,0.0,0.0,0.0,0.0,2
-7037.19,14614.83,-6235.155,-15385.32,0.0,0.0,0.0,0.0,2
-7050.87,14605.335,-6236.595,-15416.37,0.0,0.0,0.0,0.0,2
-7029.18,14630.13,-6192.99,-15376.815,0.0,0.0,0.0,0.0,2
-7001.82,14655.6,-6178.905,-15346.665,0.0,0.0,0.0,0.0,2
-7018.515,14636.97,-6204.96,-15362.235,0.0,0.0,0.0,0.0,2
-7029.855,14616.945,-6223.86,-15387.165,0.0,0.0,0.0,0.0,2
-7015.23,14632.92,-6189.885,-15357.42,0.0,0.0,0.0,0.0,2
-7011.72,14640.39,-6202.89,-15344.145,0.0,0.0,0.0,0.0,2
-6997.365,14648.895,-6220.035,-15376.185,0.0,0.0,0.0,0.0,2
-7023.735,14624.28,-6225.885,-15420.105,0.0,0.0,0.0,0.0,2
-7050.51,14603.445,-6239.07,-15406.29,0.0,0.0,0.0,0.0,2
-7006.005,14652.09,-6190.965,-15355.755,0.0,0.0,0.0,0.0,2
-7001.145,14652.855,-6192.225,-15349.32,0.0,0.0,0.0,0.0,2
-6983.055,14673.15,-6169.05,-15323.49,0.0,0.0,0.0,0.0,2
-6992.595,14672.115,-6169.14,-15328.125,0.0,0.0,0.0,0.0,2
-7061.265,14601.195,-6249.87,-15411.015,0.0,0.0,0.0,0.0,2
-7080.84,14580.945,-6278.805,-15436.395,0.0,0.0,0.0,0.0,2
-7042.5,14620.005,-6234.93,-15391.35,0.0,0.0,0.0,0.0,2
-7015.77,14642.145,-6204.465,-15365.97,0.0,0.0,0.0,0.0,2
-7010.19,14637.465,-6209.46,-15374.925,0.0,0.0,0.0,0.0,2
-6984.54,14654.61,-6194.34,-15357.69,0.0,0.0,0.0,0.0,2
-6941.565,14714.37,-6136.47,-15293.385,0.0,0.0,0.0,0.0,2
-6942.195,14715.765,-6137.955,-15289.11,0.0,0.0,0.0,0.0,2
-6993.765,14659.11,-6203.745,-15351.885,0.0,0.0,0.0,0.0,2
-7046.73,14606.01,-6266.52,-15420.42,0.0,0.0,0.0,0.0,2
-7100.19,14555.61,-6295.455,-15470.1,0.0,0.0,0.0,0.0,2
-7087.905,14570.82,-6261.48,-15438.735,0.0,0.0,0.0,0.0,2
-7017.39,14636.07,-6205.725,-15374.385,0.0,0.0,0.0,0.0,2
-6993.27,14669.145,-6167.295,-15331.86,0.0,0.0,0.0,0.0,2
-7018.29,14650.11,-6183.855,-15342.435,0.0,0.0,0.0,0.0,2
-7026.3,14625.81,-6211.305,-15360.03,0.0,0.0,0.0,0.0,2
-6994.35,14655.06,-6196.77,-15338.88,0.0,0.0,0.0,0.0,2
-7015.095,14634.495,-6219.0,-15363.09,0.0,0.0,0.0,0.0,2
-7046.235,14609.16,-6224.31,-15396.3,0.0,0.0,0.0,0.0,2
-7025.175,14632.065,-6194.925,-15370.83,0.0,0.0,0.0,0.0,2
-7008.12,14642.685,-6210.495,-15366.735,0.0,0.0,0.0,0.0,2
-7012.08,14638.68,-6209.73,-15360.39,0.0,0.0,0.0,0.0,2
-7044.075,14608.845,-6245.82,-15380.595,0.0,0.0,0.0,0.0,2
-7042.365,14605.11,-6286.995,-15419.52,0.0,0.0,0.0,0.0,2
-7026.705,14630.49,-6229.485,-15381.81,0.0,0.0,0.0,0.0,2
-7046.595,14608.17,-6216.3,-15384.33,0.0,0.0,0.0,0.0,2
-7048.62,14611.635,-6186.465,-15373.395,0.0,0.0,0.0,0.0,2
-7019.46,14647.635,-6151.545,-15331.455,0.0,0.0,0.0,0.0,2
-7005.33,14653.89,-6178.545,-15349.635,0.0,0.0,0.0,0.0,2
-6987.195,14675.085,-6179.58,-15347.565,0.0,0.0,0.0,0.0,2
-7024.815,14639.31,-6214.455,-15354.405,0.0,0.0,0.0,0.0,2
-7055.055,14617.71,-6229.305,-15378.48,0.0,0.0,0.0,0.0,2
-7038.54,14634.585,-6214.545,-15377.805,0.0,0.0,0.0,0.0,2
-7012.08,14644.575,-6201.81,-15355.89,0.0,0.0,0.0,0.0,2
-7002.945,14649.03,-6199.335,-15354.045,0.0,0.0,0.0,0.0,2
-7000.02,14663.88,-6181.155,-15338.43,0.0,0.0,0.0,0.0,2
-7005.6,14663.025,-6179.31,-15333.57,0.0,0.0,0.0,0.0,2
-6994.62,14674.275,-6168.78,-15313.68,0.0,0.0,0.0,0.0,2
-6972.3,14690.025,-6178.635,-15317.28,0.0,0.0,0.0,0.0,2
-7024.95,14627.52,-6236.505,-15377.805,0.0,0.0,0.0,0.0,2
-7083.09,14569.56,-6288.03,-15415.83,0.0,0.0,0.0,0.0,2
-7049.16,14614.56,-6245.01,-15388.425,0.0,0.0,0.0,0.0,2
-7037.595,14631.12,-6226.11,-15408.675,0.0,0.0,0.0,0.0,2
-7045.515,14626.26,-6199.38,-15382.8,0.0,0.0,0.0,0.0,2
-7026.75,14639.535,-6205.23,-15366.105,0.0,0.0,0.0,0.0,2
-6994.575,14676.48,-6177.6,-15330.105,0.0,0.0,0.0,0.0,2
-6995.97,14680.755,-6148.62,-15314.265,0.0,0.0,0.0,0.0,2
-7017.39,14648.805,-6184.935,-15342.93,0.0,0.0,0.0,0.0,2
-7043.04,14622.93,-6219.63,-15373.71,0.0,0.0,0.0,0.0,2
-7075.755,14597.91,-6240.42,-15392.025,0.0,0.0,0.0,0.0,2
-7067.565,14605.785,-6229.53,-15382.08,0.0,0.0,0.0,0.0,2
-7030.845,14630.805,-6213.465,-15372.855,0.0,0.0,0.0,0.0,2
-7041.105,14621.31,-6225.84,-15391.665,0.0,0.0,0.0,0.0,2
-7029.765,14639.85,-6197.805,-15365.655,0.0,0.0,0.0,0.0,2
-6985.98,14691.87,-6152.085,-15313.77,0.0,0.0,0.0,0.0,2
-7000.47,14659.785,-6194.43,-15348.465,0.0,0.0,0.0,0.0,2
-7029.135,14635.44,-6197.13,-15355.845,0.0,0.0,0.0,0.0,2
-7031.25,14644.89,-6159.78,-15325.515,0.0,0.0,0.0,0.0,2
-7004.52,14665.995,-6163.155,-15301.17,0.0,0.0,0.0,0.0,2
-7009.875,14654.835,-6231.33,-15362.595,0.0,0.0,0.0,0.0,2
-7060.59,14611.995,-6284.745,-15429.555,0.0,0.0,0.0,0.0,2
-7034.445,14629.77,-6241.545,-15395.49,0.0,0.0,0.0,0.0,2
-6994.215,14673.6,-6164.865,-15324.705,0.0,0.0,0.0,0.0,2
-6972.48,14699.925,-6139.44,-15302.205,0.0,0.0,0.0,0.0,2
-7005.78,14653.665,-6180.66,-15352.155,0.0,0.0,0.0,0.0,2
-7050.105,14608.17,-6218.37,-15385.005,0.0,0.0,0.0,0.0,2
-7045.02,14621.085,-6200.64,-15359.67,0.0,0.0,0.0,0.0,2
-7034.805,14631.345,-6215.535,-15363.945,0.0,0.0,0.0,0.0,2
-7036.38,14630.535,-6217.92,-15373.08,0.0,0.0,0.0,0.0,2
-7044.435,14634.54,-6207.705,-15374.385,0.0,0.0,0.0,0.0,2
-7025.85,14666.94,-6174.315,-15339.015,0.0,0.0,0.0,0.0,2
-7020.72,14656.5,-6199.02,-15352.155,0.0,0.0,0.0,0.0,2
-7039.08,14625.54,-6228.045,-15379.065,0.0,0.0,0.0,0.0,2
-7047.405,14624.01,-6216.165,-15367.68,0.0,0.0,0.0,0.0,2
-7020.495,14655.51,-6200.37,-15349.365,0.0,0.0,0.0,0.0,2
-7023.51,14649.48,-6211.755,-15368.355,0.0,0.0,0.0,0.0,2
-7031.295,14648.76,-6186.69,-15356.025,0.0,0.0,0.0,0.0,2
-7008.57,14668.515,-6168.69,-15333.165,0.0,0.0,0.0,0.0,2
-7019.955,14657.715,-6188.13,-15352.965,0.0,0.0,0.0,0.0,2
-7035.615,14641.155,-6207.12,-15368.445,0.0,0.0,0.0,0.0,2
-7036.065,14634.855,-6212.205,-15368.985,0.0,0.0,0.0,0.0,2
-7026.795,14648.13,-6199.11,-15348.915,0.0,0.0,0.0,0.0,2
-7011.63,14664.735,-6184.62,-15324.93,0.0,0.0,0.0,0.0,2
-7031.565,14642.91,-6194.565,-15332.895,0.0,0.0,0.0,0.0,2
-7013.475,14656.995,-6184.08,-15331.41,0.0,0.0,0.0,0.0,2
-7027.74,14645.97,-6185.97,-15350.04,0.0,0.0,0.0,0.0,2
-7069.95,14598.27,-6247.44,-15405.12,0.0,0.0,0.0,0.0,2
-7044.12,14613.705,-6253.515,-15399.99,0.0,0.0,0.0,0.0,2
-7034.715,14633.28,-6235.47,-15360.57,0.0,0.0,0.0,0.0,2
-7061.805,14618.34,-6242.265,-15361.155,0.0,0.0,0.0,0.0,2
-7023.195,14667.255,-6163.83,-15321.195,0.0,0.0,0.0,0.0,2
-6948.765,14734.125,-6089.175,-15249.285,0.0,0.0,0.0,0.0,2
-6983.28,14689.98,-6164.595,-15344.28,0.0,0.0,0.0,0.0,2
-7028.865,14644.305,-6202.755,-15377.445,0.0,0.0,0.0,0.0,2
-7028.505,14649.885,-6198.165,-15367.365,0.0,0.0,0.0,0.0,2
-7011.72,14661.63,-6216.165,-15369.165,0.0,0.0,0.0,0.0,2
-7020.0,14651.595,-6221.295,-15363.135,0.0,0.0,0.0,0.0,2
-7047.45,14625.855,-6202.935,-15366.195,0.0,0.0,0.0,0.0,2
-7057.44,14619.735,-6199.425,-15357.87,0.0,0.0,0.0,0.0,2
-7052.67,14629.05,-6208.155,-15357.915,0.0,0.0,0.0,0.0,2
-7010.82,14666.085,-6174.765,-15322.545,0.0,0.0,0.0,0.0,2
-6973.155,14702.895,-6138.045,-15287.895,0.0,0.0,0.0,0.0,2
-7021.44,14655.195,-6191.505,-15347.43,0.0,0.0,0.0,0.0,2
-7051.185,14623.965,-6214.815,-15374.025,0.0,0.0,0.0,0.0,2
-7030.35,14646.42,-6194.025,-15352.965,0.0,0.0,0.0,0.0,2
-7034.355,14642.82,-6212.7,-15362.91,0.0,0.0,0.0,0.0,2
-7056.99,14628.69,-6212.205,-15358.68,0.0,0.0,0.0,0.0,2
-7062.795,14618.07,-6217.245,-15361.065,0.0,0.0,0.0,0.0,2
-7012.98,14664.735,-6162.975,-15312.735,0.0,0.0,0.0,0.0,2
-7022.61,14655.33,-6182.37,-15332.04,0.0,0.0,0.0,0.0,2
-7028.955,14647.095,-6217.92,-15364.62,0.0,0.0,0.0,0.0,2
-7011.315,14667.075,-6195.465,-15337.44,0.0,0.0,0.0,0.0,2
-7020.765,14654.25,-6205.14,-15360.165,0.0,0.0,0.0,0.0,2
-7031.07,14646.915,-6200.055,-15354.945,0.0,0.0,0.0,0.0,2
-7039.53,14638.23,-6219.36,-15363.765,0.0,0.0,0.0,0.0,2
-7032.915,14651.145,-6211.8,-15351.57,0.0,0.0,0.0,0.0,2
-7012.53,14680.395,-6155.055,-15306.66,0.0,0.0,0.0,0.0,2
-6997.185,14687.28,-6154.38,-15304.365,0.0,0.0,0.0,0.0,2
-7008.795,14657.76,-6215.67,-15358.77,0.0,0.0,0.0,0.0,2
-7053.48,14609.16,-6254.415,-15402.195,0.0,0.0,0.0,0.0,2
-7024.14,14663.025,-6177.33,-15333.3,0.0,0.0,0.0,0.0,2
-6998.175,14707.035,-6126.39,-15278.805,0.0,0.0,0.0,0.0,2
-7055.145,14642.685,-6200.865,-15349.545,0.0,0.0,0.0,0.0,2
-7085.295,14608.89,-6234.705,-15381.18,0.0,0.0,0.0,0.0,2
-7049.745,14629.14,-6216.165,-15360.39,0.0,0.0,0.0,0.0,2
-7007.67,14668.83,-6177.375,-15322.59,0.0,0.0,0.0,0.0,2
-7021.62,14660.145,-6187.905,-15331.05,0.0,0.0,0.0,0.0,2
-7055.595,14614.245,-6247.125,-15385.545,0.0,0.0,0.0,0.0,2
-7037.595,14638.23,-6218.28,-15358.86,0.0,0.0,0.0,0.0,2
-6954.705,14737.185,-6104.52,-15251.805,0.0,0.0,0.0,0.0,2
-6976.17,14720.715,-6117.885,-15264.045,0.0,0.0,0.0,0.0,2
-7103.205,14582.43,-6255.72,-15389.73,0.0,0.0,0.0,0.0,2
-7095.51,14578.83,-6250.41,-15383.745,0.0,0.0,0.0,0.0,2
-7005.24,14674.635,-6147.99,-15287.715,0.0,0.0,0.0,0.0,2
-7024.815,14660.505,-6201.405,-15307.2,0.0,0.0,0.0,0.0,2
-7021.035,14663.385,-6215.625,-15331.59,0.0,0.0,0.0,0.0,2
-6985.17,14691.87,-6166.845,-15332.85,0.0,0.0,0.0,0.0,2
-6990.84,14684.58,-6153.93,-15309.765,0.0,0.0,0.0,0.0,2
-7037.325,14634.63,-6225.39,-15359.715,0.0,0.0,0.0,0.0,2
-7053.48,14623.65,-6242.13,-15379.38,0.0,0.0,0.0,0.0,2
-7070.67,14608.305,-6249.42,-15399.72,0.0,0.0,0.0,0.0,2
-7053.84,14624.91,-6237.81,-15389.28,0.0,0.0,0.0,0.0,2
-7032.24,14653.485,-6183.135,-15338.835,0.0,0.0,0.0,0.0,2
-7026.93,14660.415,-6178.14,-15327.99,0.0,0.0,0.0,0.0,2
-7040.385,14649.885,-6193.26,-15337.71,0.0,0.0,0.0,0.0,2
-7036.245,14650.2,-6206.265,-15341.94,0.0,0.0,0.0,0.0,2
-7034.22,14646.105,-6226.695,-15352.245,0.0,0.0,0.0,0.0,2
-7046.64,14638.365,-6220.53,-15356.205,0.0,0.0,0.0,0.0,2
-7054.965,14630.535,-6220.755,-15364.26,0.0,0.0,0.0,0.0,2
-7039.17,14643.63,-6214.545,-15363.225,0.0,0.0,0.0,0.0,2
-7039.44,14647.59,-6205.995,-15356.34,0.0,0.0,0.0,0.0,2
-7057.845,14642.505,-6195.915,-15341.715,0.0,0.0,0.0,0.0,2
-7044.39,14661.9,-6169.095,-15312.06,0.0,0.0,0.0,0.0,2
-7007.085,14681.52,-6160.23,-15309.36,0.0,0.0,0.0,0.0,2
-7027.335,14661.9,-6201.855,-15342.345,0.0,0.0,0.0,0.0,2
-7049.205,14641.11,-6209.145,-15347.43,0.0,0.0,0.0,0.0,2
-7030.845,14649.57,-6188.58,-15330.825,0.0,0.0,0.0,0.0,2
-7029.855,14649.21,-6196.005,-15334.92,0.0,0.0,0.0,0.0,2
-7020.045,14669.37,-6177.195,-15313.5,0.0,0.0,0.0,0.0,2
-7030.44,14663.25,-6196.68,-15329.205,0.0,0.0,0.0,0.0,2
-7019.55,14679.54,-6176.34,-15315.39,0.0,0.0,0.0,0.0,2
-7021.44,14670.675,-6163.02,-15301.215,0.0,0.0,0.0,0.0,2
-7048.845,14639.31,-6181.695,-15302.295,0.0,0.0,0.0,0.0,2
-7051.14,14634.585,-6221.115,-15345.45,0.0,0.0,0.0,0.0,2
-7047.495,14636.295,-6224.985,-15385.905,0.0,0.0,0.0,0.0,2
-7042.275,14647.32,-6203.88,-15346.575,0.0,0.0,0.0,0.0,2
-7030.845,14656.77,-6201.045,-15334.245,0.0,0.0,0.0,0.0,2
-7028.1,14658.39,-6193.53,-15330.78,0.0,0.0,0.0,0.0,2
-6979.41,14719.185,-6117.345,-15264.81,0.0,0.0,0.0,0.0,2
-6948.27,14758.245,-6074.055,-15223.77,0.0,0.0,0.0,0.0,2
-7027.29,14664.87,-6199.155,-15325.965,0.0,0.0,0.0,0.0,2
-7117.11,14564.16,-6301.08,-15426.945,0.0,0.0,0.0,0.0,2
-7065.765,14622.255,-6238.08,-15370.11,0.0,0.0,0.0,0.0,2
-7043.67,14646.555,-6215.895,-15337.08,0.0,0.0,0.0,0.0,2
-7045.695,14648.31,-6218.055,-15336.0,0.0,0.0,0.0,0.0,2
-7082.415,14607.495,-6254.055,-15377.58,0.0,0.0,0.0,0.0,2
-7089.57,14605.11,-6249.33,-15378.165,0.0,0.0,0.0,0.0,2
-7064.595,14623.74,-6227.73,-15362.055,0.0,0.0,0.0,0.0,2
-7037.415,14646.375,-6208.47,-15345.54,0.0,0.0,0.0,0.0,2
-7016.4,14682.87,-6173.595,-15310.755,0.0,0.0,0.0,0.0,2
-7005.015,14687.01,-6175.53,-15303.33,0.0,0.0,0.0,0.0,2
-7018.29,14675.805,-6179.175,-15298.38,0.0,0.0,0.0,0.0,2
-7066.845,14626.665,-6224.985,-15329.745,0.0,0.0,0.0,0.0,2
-7067.565,14627.025,-6219.09,-15344.46,0.0,0.0,0.0,0.0,2
-7041.33,14654.88,-6201.225,-15336.495,0.0,0.0,0.0,0.0,2
-7051.995,14638.365,-6228.63,-15360.12,0.0,0.0,0.0,0.0,2
-7069.095,14622.795,-6239.97,-15366.6,0.0,0.0,0.0,0.0,2
-7078.005,14637.285,-6214.14,-15331.77,0.0,0.0,0.0,0.0,2
-7071.075,14640.975,-6209.82,-15317.64,0.0,0.0,0.0,0.0,2
-7046.685,14632.47,-6211.755,-15345.99,0.0,0.0,0.0,0.0,2
-7062.12,14623.92,-6202.215,-15342.525,0.0,0.0,0.0,0.0,2
-7046.145,14642.955,-6207.39,-15330.96,0.0,0.0,0.0,0.0,2
-7020.315,14677.425,-6178.815,-15307.605,0.0,0.0,0.0,0.0,2
-7020.675,14684.13,-6158.52,-15291.855,0.0,0.0,0.0,0.0,2
-7026.12,14668.155,-6184.17,-15306.885,0.0,0.0,0.0,0.0,2
-7055.685,14634.495,-6223.86,-15333.48,0.0,0.0,0.0,0.0,2
-7067.385,14635.575,-6219.99,-15334.515,0.0,0.0,0.0,0.0,2
-7054.065,14643.72,-6219.945,-15344.37,0.0,0.0,0.0,0.0,2
-7027.74,14660.865,-6201.675,-15336.72,0.0,0.0,0.0,0.0,2
-7011.585,14678.46,-6184.17,-15319.53,0.0,0.0,0.0,0.0,2
-7033.5,14661.18,-6188.94,-15314.715,0.0,0.0,0.0,0.0,2
-7045.155,14655.78,-6183.09,-15307.02,0.0,0.0,0.0,0.0,2
-7041.825,14657.985,-6193.44,-15319.17,0.0,0.0,0.0,0.0,2
-7020.855,14678.64,-6176.88,-15304.005,0.0,0.0,0.0,0.0,2
-7000.38,14701.455,-6154.74,-15277.41,0.0,0.0,0.0,0.0,2
-7033.68,14672.61,-6172.515,-15281.46,0.0,0.0,0.0,0.0,2
-7069.5,14625.63,-6225.84,-15346.17,0.0,0.0,0.0,0.0,2
-7067.025,14619.06,-6235.65,-15364.44,0.0,0.0,0.0,0.0,2
-7063.29,14627.385,-6223.095,-15344.91,0.0,0.0,0.0,0.0,2
-7060.095,14639.535,-6213.105,-15332.49,0.0,0.0,0.0,0.0,2
-7050.42,14649.975,-6217.965,-15330.42,0.0,0.0,0.0,0.0,2
-7053.75,14639.985,-6241.095,-15354.09,0.0,0.0,0.0,0.0,2
-7064.505,14628.42,-6219.315,-15353.64,0.0,0.0,0.0,0.0,2
-7055.64,14642.595,-6182.64,-15315.165,0.0,0.0,0.0,0.0,2
-7040.07,14660.91,-6175.755,-15297.48,0.0,0.0,0.0,0.0,2
-7050.33,14646.96,-6197.04,-15316.245,0.0,0.0,0.0,0.0,2
-7054.065,14642.865,-6204.645,-15324.03,0.0,0.0,0.0,0.0,2
-7049.655,14649.525,-6202.665,-15321.96,0.0,0.0,0.0,0.0,2
-7043.265,14655.825,-6217.92,-15329.7,0.0,0.0,0.0,0.0,2
-7047.315,14650.83,-6225.93,-15336.72,0.0,0.0,0.0,0.0,2
-7054.47,14645.655,-6209.595,-15344.82,0.0,0.0,0.0,0.0,2
-7056.54,14650.2,-6183.54,-15320.115,0.0,0.0,0.0,0.0,2
-7052.4,14654.07,-6185.565,-15305.4,0.0,0.0,0.0,0.0,2
-7045.875,14654.16,-6196.455,-15314.265,0.0,0.0,0.0,0.0,2
-7030.035,14674.545,-6180.885,-15303.24,0.0,0.0,0.0,0.0,2
-7028.82,14677.965,-6179.13,-15297.975,0.0,0.0,0.0,0.0,2
-7059.96,14643.9,-6210.315,-15334.2,0.0,0.0,0.0,0.0,2
-7073.1,14627.385,-6226.515,-15356.34,0.0,0.0,0.0,0.0,2
-7051.815,14650.155,-6199.02,-15325.92,0.0,0.0,0.0,0.0,2
-7044.21,14653.305,-6193.755,-15315.615,0.0,0.0,0.0,0.0,2
-7045.83,14656.5,-6183.72,-15303.465,0.0,0.0,0.0,0.0,2
-7024.23,14690.565,-6145.29,-15266.79,0.0,0.0,0.0,0.0,2
-6984.54,14733.225,-6118.785,-15237.99,0.0,0.0,0.0,0.0,2
-6997.185,14715.45,-6130.215,-15246.405,0.0,0.0,0.0,0.0,2
-7054.785,14649.165,-6187.185,-15306.48,0.0,0.0,0.0,0.0,2
-7087.23,14610.96,-6236.64,-15355.665,0.0,0.0,0.0,0.0,2
-7095.465,14613.345,-6244.245,-15367.365,0.0,0.0,0.0,0.0,2
-7098.84,14618.97,-6223.32,-15360.255,0.0,0.0,0.0,0.0,2
-7048.215,14652.045,-6196.635,-15325.965,0.0,0.0,0.0,0.0,2
-7025.175,14669.145,-6190.74,-15307.65,0.0,0.0,0.0,0.0,2
-7021.08,14687.145,-6163.515,-15276.465,0.0,0.0,0.0,0.0,2
-7019.37,14687.235,-6160.68,-15267.645,0.0,0.0,0.0,0.0,2
-7050.42,14644.305,-6229.125,-15336.405,0.0,0.0,0.0,0.0,2
-7056.405,14644.845,-6233.895,-15336.855,0.0,0.0,0.0,0.0,2
-7045.83,14671.665,-6155.37,-15277.68,0.0,0.0,0.0,0.0,2
-7036.65,14670.36,-6161.31,-15272.82,0.0,0.0,0.0,0.0,2
-7031.565,14658.03,-6205.365,-15333.84,0.0,0.0,0.0,0.0,2
-7059.96,14633.235,-6206.625,-15349.455,0.0,0.0,0.0,0.0,2
-7073.55,14625.765,-6201.855,-15329.025,0.0,0.0,0.0,0.0,2
-7064.955,14648.895,-6180.93,-15296.175,0.0,0.0,0.0,0.0,2
-7049.295,14673.33,-6167.43,-15287.4,0.0,0.0,0.0,0.0,2
-7005.105,14709.6,-6123.24,-15255.9,0.0,0.0,0.0,0.0,2
-6988.05,14714.235,-6122.97,-15260.355,0.0,0.0,0.0,0.0,2
-6961.23,14747.31,-6093.855,-15224.985,0.0,0.0,0.0,0.0,2
-7033.365,14684.22,-6142.59,-15278.49,0.0,0.0,0.0,0.0,2
-7101.45,14602.185,-6232.365,-15358.77,0.0,0.0,0.0,0.0,2
-7109.325,14578.74,-6270.84,-15383.43,0.0,0.0,0.0,0.0,2
-7090.155,14606.46,-6251.355,-15359.265,0.0,0.0,0.0,0.0,2
-7043.94,14679.765,-6171.165,-15285.78,0.0,0.0,0.0,0.0,2
-6991.2,14718.96,-6127.695,-15251.625,0.0,0.0,0.0,0.0,2
-7038.405,14658.57,-6185.295,-15319.395,0.0,0.0,0.0,0.0,2
-7063.155,14635.485,-6213.87,-15350.04,0.0,0.0,0.0,0.0,2
-7088.67,14604.21,-6261.615,-15385.5,0.0,0.0,0.0,0.0,2
-7070.175,14627.835,-6219.855,-15347.385,0.0,0.0,0.0,0.0,2
-7058.34,14645.475,-6194.565,-15315.075,0.0,0.0,0.0,0.0,2
-7048.62,14650.83,-6231.465,-15325.74,0.0,0.0,0.0,0.0,2
-7051.905,14651.64,-6209.055,-15327.585,0.0,0.0,0.0,0.0,2
-7048.62,14658.75,-6169.365,-15302.745,0.0,0.0,0.0,0.0,2
-7028.82,14686.47,-6139.17,-15274.755,0.0,0.0,0.0,0.0,2
-7016.58,14703.03,-6133.14,-15264.945,0.0,0.0,0.0,0.0,2
-7026.345,14694.705,-6147.675,-15280.965,0.0,0.0,0.0,0.0,2
-7051.095,14663.7,-6178.86,-15309.54,0.0,0.0,0.0,0.0,2
-7067.97,14636.205,-6205.32,-15333.12,0.0,0.0,0.0,0.0,2
-7073.91,14636.16,-6201.18,-15328.305,0.0,0.0,0.0,0.0,2
-7068.96,14647.5,-6178.005,-15300.72,0.0,0.0,0.0,0.0,2
-7068.69,14645.16,-6193.08,-15301.89,0.0,0.0,0.0,0.0,2
-7066.35,14641.38,-6210.09,-15339.78,0.0,0.0,0.0,0.0,2
-7064.37,14643.765,-6200.415,-15333.84,0.0,0.0,0.0,0.0,2
-7062.93,14644.935,-6195.915,-15326.28,0.0,0.0,0.0,0.0,2
-7044.615,14666.085,-6170.04,-15304.59,0.0,0.0,0.0,0.0,2
-7017.435,14704.605,-6122.07,-15259.815,0.0,0.0,0.0,0.0,2
-6995.115,14725.71,-6116.805,-15235.74,0.0,0.0,0.0,0.0,2
-7020.765,14694.255,-6155.415,-15265.98,0.0,0.0,0.0,0.0,2
-7048.89,14668.335,-6174.27,-15306.48,0.0,0.0,0.0,0.0,2
-7094.34,14613.39,-6231.735,-15373.305,0.0,0.0,0.0,0.0,2
-7081.92,14631.93,-6208.02,-15344.595,0.0,0.0,0.0,0.0,2
-7048.98,14666.13,-6169.905,-15298.155,0.0,0.0,0.0,0.0,2
-7028.685,14681.25,-6182.37,-15290.055,0.0,0.0,0.0,0.0,2
-7044.12,14662.755,-6204.915,-15312.555,0.0,0.0,0.0,0.0,2
-7055.955,14657.175,-6189.885,-15303.555,0.0,0.0,0.0,0.0,2
-7053.3,14663.16,-6184.305,-15297.795,0.0,0.0,0.0,0.0,2
-7062.705,14653.845,-6183.225,-15324.345,0.0,0.0,0.0,0.0,2
-7067.52,14657.535,-6159.555,-15307.47,0.0,0.0,0.0,0.0,2
-7074.045,14661.9,-6166.665,-15303.555,0.0,0.0,0.0,0.0,2
-7057.17,14673.195,-6172.335,-15303.51,0.0,0.0,0.0,0.0,2
-7029.45,14680.89,-6167.115,-15298.065,0.0,0.0,0.0,0.0,2
-7007.94,14707.71,-6133.545,-15260.175,0.0,0.0,0.0,0.0,2
-7021.305,14696.01,-6150.195,-15274.89,0.0,0.0,0.0,0.0,2
-7012.755,14707.485,-6152.04,-15269.49,0.0,0.0,0.0,0.0,2
-7009.47,14719.14,-6124.77,-15240.825,0.0,0.0,0.0,0.0,2
-7037.46,14683.995,-6152.94,-15285.915,0.0,0.0,0.0,0.0,2
-7062.615,14657.58,-6178.365,-15327.495,0.0,0.0,0.0,0.0,2
-7104.6,14616.495,-6233.4,-15367.365,0.0,0.0,0.0,0.0,2
-7082.64,14643.405,-6200.28,-15335.415,0.0,0.0,0.0,0.0,2
-7008.255,14705.685,-6150.69,-15283.08,0.0,0.0,0.0,0.0,2
-7044.48,14667.3,-6188.715,-15314.76,0.0,0.0,0.0,0.0,2
-7112.97,14604.345,-6235.695,-15369.12,0.0,0.0,0.0,0.0,2
-7118.595,14608.485,-6222.87,-15358.725,0.0,0.0,0.0,0.0,2
-7061.085,14667.615,-6170.445,-15300.72,0.0,0.0,0.0,0.0,2
-6937.695,14804.55,-6033.915,-15166.62,0.0,0.0,0.0,0.0,2
-6966.99,14766.795,-6077.295,-15210.99,0.0,0.0,0.0,0.0,2
-7092.81,14620.905,-6228.54,-15359.805,0.0,0.0,0.0,0.0,2
-7106.085,14613.66,-6221.205,-15355.845,0.0,0.0,0.0,0.0,2
-7077.42,14648.04,-6159.915,-15298.02,0.0,0.0,0.0,0.0,2
-7070.13,14647.41,-6214.95,-15315.345,0.0,0.0,0.0,0.0,2
-7060.905,14649.795,-6247.17,-15369.705,0.0,0.0,0.0,0.0,2
-7049.295,14673.78,-6176.97,-15315.615,0.0,0.0,0.0,0.0,2
-7078.275,14646.555,-6192.27,-15327.405,0.0,0.0,0.0,0.0,2
-7074.99,14651.37,-6192.54,-15334.02,0.0,0.0,0.0,0.0,2
-7049.835,14682.06,-6158.565,-15303.42,0.0,0.0,0.0,0.0,2
-7036.875,14683.995,-6158.205,-15304.77,0.0,0.0,0.0,0.0,2
-7037.865,14684.31,-6156.135,-15300.09,0.0,0.0,0.0,0.0,2
-7044.57,14678.73,-6162.48,-15300.855,0.0,0.0,0.0,0.0,2
-7064.595,14649.345,-6196.365,-15326.685,0.0,0.0,0.0,0.0,2
-7064.325,14656.05,-6200.55,-15317.01,0.0,0.0,0.0,0.0,2
-7061.805,14663.385,-6184.98,-15313.005,0.0,0.0,0.0,0.0,2
-7045.785,14677.65,-6155.415,-15303.33,0.0,0.0,0.0,0.0,2
-7046.055,14680.485,-6146.28,-15291.315,0.0,0.0,0.0,0.0,2
-7053.93,14673.555,-6158.34,-15299.1,0.0,0.0,0.0,0.0,2
-7031.43,14700.78,-6146.775,-15277.14,0.0,0.0,0.0,0.0,2
-7011.72,14722.335,-6130.395,-15260.085,0.0,0.0,0.0,0.0,2
-7038.855,14692.185,-6175.17,-15294.375,0.0,0.0,0.0,0.0,2
-7080.21,14644.89,-6212.34,-15331.185,0.0,0.0,0.0,0.0,2
-7076.61,14651.82,-6182.595,-15316.155,0.0,0.0,0.0,0.0,2
-7052.4,14679.135,-6155.73,-15292.395,0.0,0.0,0.0,0.0,2
-7051.905,14690.16,-6143.49,-15279.66,0.0,0.0,0.0,0.0,2
-7039.395,14706.315,-6129.675,-15255.27,0.0,0.0,0.0,0.0,2
-7017.525,14713.425,-6151.095,-15278.805,0.0,0.0,0.0,0.0,2
-7052.895,14667.39,-6188.04,-15327.765,0.0,0.0,0.0,0.0,2
-7107.705,14622.705,-6258.24,-15369.615,0.0,0.0,0.0,0.0,2
-7036.29,14715.945,-6128.685,-15243.03,0.0,0.0,0.0,0.0,2
-7021.71,14705.055,-6130.89,-15263.82,0.0,0.0,0.0,0.0,2
-7084.035,14629.41,-6205.995,-15335.865,0.0,0.0,0.0,0.0,2
-7083.72,14638.86,-6216.48,-15338.52,0.0,0.0,0.0,0.0,2
-7069.68,14662.755,-6163.11,-15285.915,0.0,0.0,0.0,0.0,2
-7077.42,14655.33,-6170.85,-15297.3,0.0,0.0,0.0,0.0,2
-7062.84,14666.49,-6192.135,-15333.48,0.0,0.0,0.0,0.0,2
-7060.32,14674.86,-6183.09,-15315.12,0.0,0.0,0.0,0.0,2
-7078.32,14662.125,-6184.305,-15311.16,0.0,0.0,0.0,0.0,2
-7060.095,14687.28,-6151.77,-15276.51,0.0,0.0,0.0,0.0,2
-7053.075,14685.48,-6156.495,-15282.18,0.0,0.0,0.0,0.0,2
-7069.185,14656.095,-6189.705,-15324.03,0.0,0.0,0.0,0.0,2
-7066.395,14661.135,-6186.15,-15321.87,0.0,0.0,0.0,0.0,2
-7076.025,14663.43,-6185.16,-15319.665,0.0,0.0,0.0,0.0,2
-7078.32,14658.66,-6206.265,-15329.97,0.0,0.0,0.0,0.0,2
-7052.625,14661.765,-6211.305,-15325.83,0.0,0.0,0.0,0.0,2
-7063.38,14660.685,-6179.895,-15311.475,0.0,0.0,0.0,0.0,2
-7063.425,14671.98,-6153.39,-15293.16,0.0,0.0,0.0,0.0,2
-7027.29,14707.98,-6129.09,-15259.68,0.0,0.0,0.0,0.0,2
-7030.395,14705.37,-6139.755,-15271.47,0.0,0.0,0.0,0.0,2
-7061.625,14664.105,-6192.495,-15328.395,0.0,0.0,0.0,0.0,2
-7049.025,14685.66,-6162.255,-15294.105,0.0,0.0,0.0,0.0,2
-7038.045,14700.33,-6137.91,-15269.58,0.0,0.0,0.0,0.0,2
-7056.405,14678.505,-6154.155,-15287.895,0.0,0.0,0.0,0.0,2
-7076.88,14656.095,-6209.505,-15333.975,0.0,0.0,0.0,0.0,2
-7037.955,14698.17,-6177.69,-15301.98,0.0,0.0,0.0,0.0,2
-7046.145,14702.805,-6125.85,-15270.75,0.0,0.0,0.0,0.0,2
-7116.705,14631.93,-6191.1,-15325.605,0.0,0.0,0.0,0.0,2
-7128.36,14623.92,-6193.53,-15316.965,0.0,0.0,0.0,0.0,2
-7053.03,14678.595,-6179.49,-15286.14,0.0,0.0,0.0,0.0,2
-7030.665,14694.93,-6161.985,-15288.345,0.0,0.0,0.0,0.0,2
-7049.655,14678.685,-6151.275,-15296.805,0.0,0.0,0.0,0.0,2
-7056.945,14674.77,-6171.03,-15299.01,0.0,0.0,0.0,0.0,2
-7061.715,14666.985,-6201.675,-15310.71,0.0,0.0,0.0,0.0,2
-7087.005,14648.49,-6203.16,-15318.0,0.0,0.0,0.0,0.0,2
-7097.31,14649.75,-6203.655,-15305.985,0.0,0.0,0.0,0.0,2
-7047.36,14712.12,-6117.075,-15215.085,0.0,0.0,0.0,0.0,2
-6970.995,14772.465,-6077.16,-15211.53,0.0,0.0,0.0,0.0,2
-7022.61,14712.795,-6134.67,-15293.745,0.0,0.0,0.0,0.0,2
-7093.26,14642.37,-6187.815,-15319.17,0.0,0.0,0.0,0.0,2
-7086.195,14654.43,-6180.345,-15304.23,0.0,0.0,0.0,0.0,2
-7075.98,14668.605,-6176.385,-15285.645,0.0,0.0,0.0,0.0,2
-7076.07,14670.63,-6172.515,-15283.62,0.0,0.0,0.0,0.0,2
-7064.685,14676.435,-6147.855,-15286.95,0.0,0.0,0.0,0.0,2
-7067.88,14667.57,-6131.79,-15271.38,0.0,0.0,0.0,0.0,2
-7075.755,14655.555,-6208.38,-15327.27,0.0,0.0,0.0,0.0,2
-7082.865,14645.34,-6219.99,-15338.475,0.0,0.0,0.0,0.0,2
-7083.36,14652.99,-6191.64,-15296.67,0.0,0.0,0.0,0.0,2
-7071.39,14666.85,-6174.045,-15291.63,0.0,0.0,0.0,0.0,2
-7061.67,14670.765,-6178.095,-15319.98,0.0,0.0,0.0,0.0,2
-7063.83,14671.665,-6172.695,-15300.09,0.0,0.0,0.0,0.0,2
-7071.93,14664.96,-6176.25,-15296.265,0.0,0.0,0.0,0.0,2
-7068.33,14676.12,-6163.83,-15286.32,0.0,0.0,0.0,0.0,2
-7070.355,14674.32,-6168.15,-15294.285,0.0,0.0,0.0,0.0,2
-7071.705,14673.6,-6168.87,-15294.915,0.0,0.0,0.0,0.0,2
-7077.465,14661.54,-6184.215,-15311.97,0.0,0.0,0.0,0.0,2
-7069.635,14663.745,-6183.585,-15309.9,0.0,0.0,0.0,0.0,2
-7043.985,14702.76,-6137.28,-15260.805,0.0,0.0,0.0,0.0,2
-7052.76,14707.98,-6128.595,-15247.44,0.0,0.0,0.0,0.0,2
-7067.115,14688.855,-6150.195,-15268.725,0.0,0.0,0.0,0.0,2
-7069.32,14667.615,-6174.09,-15286.995,0.0,0.0,0.0,0.0,2
-7076.43,14652.9,-6211.44,-15315.12,0.0,0.0,0.0,0.0,2
-7063.335,14671.17,-6191.865,-15297.39,0.0,0.0,0.0,0.0,2
-7048.215,14686.515,-6167.835,-15289.965,0.0,0.0,0.0,0.0,2
-7084.665,14654.88,-6207.03,-15335.1,0.0,0.0,0.0,0.0,2
-7100.955,14636.655,-6200.01,-15331.05,0.0,0.0,0.0,0.0,2
-7058.97,14682.78,-6131.295,-15263.595,0.0,0.0,0.0,0.0,2
-7081.92,14666.22,-6124.095,-15254.01,0.0,0.0,0.0,0.0,2
-7104.195,14641.02,-6162.21,-15282.675,0.0,0.0,0.0,0.0,2
-7039.53,14694.84,-6183.045,-15297.84,0.0,0.0,0.0,0.0,2
-7044.435,14699.16,-6158.79,-15292.17,0.0,0.0,0.0,0.0,2
-7080.93,14667.93,-6178.185,-15305.31,0.0,0.0,0.0,0.0,2
-7087.545,14665.005,-6177.825,-15299.1,0.0,0.0,0.0,0.0,2
-7067.88,14675.76,-6166.89,-15285.15,0.0,0.0,0.0,0.0,2
-7064.505,14670.855,-6173.19,-15294.33,0.0,0.0,0.0,0.0,2
-7069.86,14670.855,-6171.3,-15298.515,0.0,0.0,0.0,0.0,2
-7070.805,14669.415,-6177.78,-15299.64,0.0,0.0,0.0,0.0,2
-7061.4,14683.32,-6148.98,-15279.93,0.0,0.0,0.0,0.0,2
-7046.37,14705.37,-6122.34,-15254.64,0.0,0.0,0.0,0.0,2
-7051.86,14692.86,-6164.505,-15281.865,0.0,0.0,0.0,0.0,2
-7067.88,14671.53,-6173.28,-15291.36,0.0,0.0,0.0,0.0,2
-7056.72,14688.81,-6145.38,-15255.315,0.0,0.0,0.0,0.0,2
-7073.82,14675.67,-6166.71,-15287.175,0.0,0.0,0.0,0.0,2
-7095.78,14649.795,-6197.4,-15324.435,0.0,0.0,0.0,0.0,2
-7105.5,14643.45,-6200.64,-15321.15,0.0,0.0,0.0,0.0,2
-7095.78,14659.92,-6186.915,-15308.865,0.0,0.0,0.0,0.0,2
-7075.44,14668.92,-6185.43,-15309.99,0.0,0.0,0.0,0.0,2
-7026.885,14711.4,-6143.715,-15272.37,0.0,0.0,0.0,0.0,2
-7030.62,14718.6,-6125.265,-15251.13,0.0,0.0,0.0,0.0,2
-7093.8,14663.655,-6174.315,-15297.12,0.0,0.0,0.0,0.0,2
-7148.385,14613.3,-6227.865,-15348.78,0.0,0.0,0.0,0.0,2
-7080.165,14670.315,-6181.29,-15293.205,0.0,0.0,0.0,0.0,2
-7050.555,14692.095,-6156.81,-15268.635,0.0,0.0,0.0,0.0,2
-7054.65,14695.38,-6139.935,-15273.45,0.0,0.0,0.0,0.0,2
-7037.28,14713.965,-6119.595,-15252.615,0.0,0.0,0.0,0.0,2
-7050.42,14700.645,-6140.295,-15271.92,0.0,0.0,0.0,0.0,2
-7078.86,14669.595,-6187.365,-15313.95,0.0,0.0,0.0,0.0,2
-7066.755,14685.075,-6178.995,-15299.46,0.0,0.0,0.0,0.0,2
-7060.995,14696.37,-6140.16,-15270.615,0.0,0.0,0.0,0.0,2
-7100.64,14649.345,-6175.035,-15303.915,0.0,0.0,0.0,0.0,2
-7082.91,14677.11,-6140.745,-15255.63,0.0,0.0,0.0,0.0,2
-7041.24,14734.125,-6105.645,-15207.705,0.0,0.0,0.0,0.0,2
-7071.57,14679.0,-6193.08,-15323.49,0.0,0.0,0.0,0.0,2
-7112.79,14627.655,-6210.585,-15357.465,0.0,0.0,0.0,0.0,2
-7090.155,14660.01,-6169.59,-15310.26,0.0,0.0,0.0,0.0,2
-7065.405,14688.855,-6126.12,-15268.23,0.0,0.0,0.0,0.0,2
-7075.305,14672.61,-6173.19,-15301.755,0.0,0.0,0.0,0.0,2
-7092.81,14652.99,-6194.205,-15324.615,0.0,0.0,0.0,0.0,2
-7080.705,14669.01,-6171.705,-15303.195,0.0,0.0,0.0,0.0,2
-7079.13,14676.75,-6168.375,-15296.265,0.0,0.0,0.0,0.0,2
-7067.115,14696.82,-6162.39,-15280.2,0.0,0.0,0.0,0.0,2
-7094.655,14665.5,-6180.345,-15300.36,0.0,0.0,0.0,0.0,2
-7115.895,14643.63,-6190.38,-15325.2,0.0,0.0,0.0,0.0,2
-7091.55,14665.635,-6169.455,-15302.79,0.0,0.0,0.0,0.0,2
-7087.725,14667.255,-6174.99,-15303.915,0.0,0.0,0.0,0.0,2
-7085.745,14672.88,-6168.195,-15296.04,0.0,0.0,0.0,0.0,2
-7070.805,14686.155,-6155.55,-15281.415,0.0,0.0,0.0,0.0,2
-7105.635,14647.635,-6202.08,-15321.15,0.0,0.0,0.0,0.0,2
-7101.945,14650.605,-6196.815,-15301.125,0.0,0.0,0.0,0.0,2
-7069.905,14676.975,-6172.47,-15285.33,0.0,0.0,0.0,0.0,2
-7066.665,14681.52,-6163.29,-15309.765,0.0,0.0,0.0,0.0,2
-7067.43,14688.405,-6164.415,-15287.31,0.0,0.0,0.0,0.0,2
-7078.59,14689.53,-6155.955,-15271.875,0.0,0.0,0.0,0.0,2
-7068.51,14699.07,-6135.39,-15267.87,0.0,0.0,0.0,0.0,2
-7067.07,14696.145,-6138.765,-15260.355,0.0,0.0,0.0,0.0,2
-6999.795,14764.545,-6078.24,-15203.295,0.0,0.0,0.0,0.0,2
-6960.33,14808.285,-6022.08,-15159.51,0.0,0.0,0.0,0.0,2
-7062.075,14701.68,-6128.64,-15258.96,0.0,0.0,0.0,0.0,2
-7182.0,14578.83,-6281.955,-15397.02,0.0,0.0,0.0,0.0,2
-7116.93,14660.01,-6182.91,-15314.265,0.0,0.0,0.0,0.0,2
-7011.72,14764.32,-6059.025,-15201.72,0.0,0.0,0.0,0.0,2
-6993.81,14768.46,-6076.53,-15192.315,0.0,0.0,0.0,0.0,2
-7086.87,14663.745,-6189.705,-15300.945,0.0,0.0,0.0,0.0,2
-7125.345,14637.96,-6214.185,-15336.63,0.0,0.0,0.0,0.0,2
-7111.305,14663.115,-6166.845,-15298.155,0.0,0.0,0.0,0.0,2
-7134.615,14622.21,-6192.315,-15328.89,0.0,0.0,0.0,0.0,2
-7102.755,14646.51,-6202.485,-15327.54,0.0,0.0,0.0,0.0,2
-7061.805,14695.875,-6157.485,-15287.265,0.0,0.0,0.0,0.0,2
-7067.61,14689.845,-6160.77,-15294.69,0.0,0.0,0.0,0.0,2
-7053.12,14707.8,-6143.895,-15277.455,0.0,0.0,0.0,0.0,2
-7059.465,14701.95,-6149.43,-15279.075,0.0,0.0,0.0,0.0,2
-7073.145,14687.775,-6159.15,-15285.015,0.0,0.0,0.0,0.0,2
-7063.56,14700.06,-6145.605,-15272.415,0.0,0.0,0.0,0.0,2
-7080.03,14686.335,-6152.4,-15276.78,0.0,0.0,0.0,0.0,2
-7105.41,14660.685,-6178.23,-15305.94,0.0,0.0,0.0,0.0,2
-7115.535,14649.345,-6191.865,-15319.8,0.0,0.0,0.0,0.0,2
-7110.45,14661.765,-6177.015,-15296.355,0.0,0.0,0.0,0.0,2
-7083.27,14694.39,-6138.405,-15264.045,0.0,0.0,0.0,0.0,2
-7072.065,14695.2,-6154.02,-15292.845,0.0,0.0,0.0,0.0,2
-7074.495,14691.555,-6155.37,-15282.99,0.0,0.0,0.0,0.0,2
-7077.42,14694.885,-6146.64,-15272.145,0.0,0.0,0.0,0.0,2
-7081.065,14682.645,-6167.925,-15293.385,0.0,0.0,0.0,0.0,2
-7083.675,14682.195,-6171.705,-15287.265,0.0,0.0,0.0,0.0,2
-7092.765,14677.515,-6164.505,-15279.66,0.0,0.0,0.0,0.0,2
-7084.53,14683.455,-6165.315,-15300.765,0.0,0.0,0.0,0.0,2
-7075.305,14698.62,-6152.31,-15283.305,0.0,0.0,0.0,0.0,2
-7077.915,14698.755,-6150.51,-15273.0,0.0,0.0,0.0,0.0,2
-7082.595,14690.115,-6178.995,-15295.365,0.0,0.0,0.0,0.0,2
-7065.135,14714.595,-6136.515,-15265.26,0.0,0.0,0.0,0.0,2
-7058.385,14727.42,-6104.7,-15234.075,0.0,0.0,0.0,0.0,2
-7088.58,14686.56,-6149.97,-15273.81,0.0,0.0,0.0,0.0,2
-7088.715,14677.155,-6163.47,-15287.04,0.0,0.0,0.0,0.0,2
-7091.595,14671.17,-6177.42,-15300.36,0.0,0.0,0.0,0.0,2
-7092.765,14673.825,-6174.045,-15305.4,0.0,0.0,0.0,0.0,2
-7096.365,14681.655,-6154.965,-15287.67,0.0,0.0,0.0,0.0,2
-7087.23,14690.16,-6147.765,-15275.745,0.0,0.0,0.0,0.0,2
-7070.355,14696.28,-6156.045,-15269.76,0.0,0.0,0.0,0.0,2
-7070.985,14697.18,-6145.155,-15260.04,0.0,0.0,0.0,0.0,2
-7078.545,14690.925,-6152.04,-15273.495,0.0,0.0,0.0,0.0,2
-7063.695,14704.02,-6132.825,-15263.19,0.0,0.0,0.0,0.0,2
-7068.015,14702.715,-6124.23,-15262.83,0.0,0.0,0.0,0.0,2
-7072.83,14702.265,-6139.035,-15267.15,0.0,0.0,0.0,0.0,2
-7043.67,14729.85,-6115.32,-15238.125,0.0,0.0,0.0,0.0,2
-7031.97,14747.715,-6083.91,-15203.835,0.0,0.0,0.0,0.0,2
-7058.295,14730.435,-6110.64,-15227.82,0.0,0.0,0.0,0.0,2
-7140.645,14644.575,-6217.11,-15329.34,0.0,0.0,0.0,0.0,2
-7128.27,14644.53,-6202.215,-15315.615,0.0,0.0,0.0,0.0,2
-7060.095,14698.71,-6137.73,-15271.155,0.0,0.0,0.0,0.0,2
-7069.32,14700.87,-6142.095,-15268.365,0.0,0.0,0.0,0.0,2
-7063.38,14719.185,-6132.465,-15263.325,0.0,0.0,0.0,0.0,2
-7075.53,14702.085,-6150.51,-15286.455,0.0,0.0,0.0,0.0,2
-7106.94,14667.75,-6170.535,-15304.635,0.0,0.0,0.0,0.0,2
-7105.095,14664.15,-6173.19,-15299.685,0.0,0.0,0.0,0.0,2
-7090.47,14676.165,-6166.89,-15291.99,0.0,0.0,0.0,0.0,2
-7080.39,14694.345,-6148.485,-15275.025,0.0,0.0,0.0,0.0,2
-7071.12,14711.985,-6125.805,-15253.965,0.0,0.0,0.0,0.0,2
-7027.065,14760.225,-6079.68,-15210.855,0.0,0.0,0.0,0.0,2
-7023.87,14753.385,-6095.115,-15225.84,0.0,0.0,0.0,0.0,2
-7099.965,14671.395,-6190.335,-15313.905,0.0,0.0,0.0,0.0,2
-7109.685,14670.72,-6183.54,-15310.17,0.0,0.0,0.0,0.0,2
-7086.915,14695.47,-6152.22,-15280.515,0.0,0.0,0.0,0.0,2
-7094.925,14681.295,-6142.14,-15258.915,0.0,0.0,0.0,0.0,2
-7095.825,14681.025,-6133.86,-15256.89,0.0,0.0,0.0,0.0,2
-7079.76,14698.395,-6130.305,-15270.93,0.0,0.0,0.0,0.0,2
-7106.49,14659.02,-6173.19,-15308.055,0.0,0.0,0.0,0.0,2
-7097.4,14666.985,-6171.57,-15303.645,0.0,0.0,0.0,0.0,2
-7081.02,14690.61,-6147.63,-15280.74,0.0,0.0,0.0,0.0,2
-7084.755,14690.52,-6147.495,-15279.66,0.0,0.0,0.0,0.0,2
-7100.1,14676.075,-6159.6,-15290.235,0.0,0.0,0.0,0.0,2
-7082.73,14694.3,-6135.03,-15266.52,0.0,0.0,0.0,0.0,2
-7060.14,14715.585,-6120.27,-15249.375,0.0,0.0,0.0,0.0,2
-7084.575,14686.2,-6162.345,-15289.2,0.0,0.0,0.0,0.0,2
-7082.64,14686.38,-6159.33,-15290.1,0.0,0.0,0.0,0.0,2
-7084.98,14686.02,-6155.325,-15289.155,0.0,0.0,0.0,0.0,2
-7088.715,14686.245,-6147.54,-15280.965,0.0,0.0,0.0,0.0,2
-7086.105,14692.725,-6133.995,-15265.845,0.0,0.0,0.0,0.0,2
-7080.705,14699.97,-6131.115,-15254.28,0.0,0.0,0.0,0.0,2
-7087.14,14692.68,-6130.44,-15246.54,0.0,0.0,0.0,0.0,2
-7083.63,14690.88,-6167.475,-15292.395,0.0,0.0,0.0,0.0,2
-7095.24,14691.735,-6147.855,-15290.82,0.0,0.0,0.0,0.0,2
-7109.145,14681.52,-6152.895,-15276.69,0.0,0.0,0.0,0.0,2
-7089.165,14691.465,-6156.36,-15279.39,0.0,0.0,0.0,0.0,2
-7070.445,14699.43,-6166.62,-15296.805,0.0,0.0,0.0,0.0,2
-7069.815,14703.435,-6155.01,-15287.58,0.0,0.0,0.0,0.0,2
-7074.0,14702.895,-6145.245,-15281.37,0.0,0.0,0.0,0.0,2
-7072.38,14711.22,-6143.94,-15271.38,0.0,0.0,0.0,0.0,2
-7049.52,14742.72,-6100.38,-15216.3,0.0,0.0,0.0,0.0,2
-7067.925,14717.925,-6114.375,-15244.695,0.0,0.0,0.0,0.0,2
-7104.96,14672.88,-6165.045,-15295.095,0.0,0.0,0.0,0.0,2
-7106.355,14674.86,-6170.985,-15300.495,0.0,0.0,0.0,0.0,2
-7102.17,14681.565,-6155.595,-15294.24,0.0,0.0,0.0,0.0,2
-7092.315,14690.655,-6147.54,-15286.095,0.0,0.0,0.0,0.0,2
-7070.265,14705.685,-6140.745,-15274.62,0.0,0.0,0.0,0.0,2
-7075.35,14704.92,-6133.905,-15268.23,0.0,0.0,0.0,0.0,2
-7096.005,14693.94,-6131.475,-15263.865,0.0,0.0,0.0,0.0,2
-7100.505,14698.53,-6127.74,-15243.21,0.0,0.0,0.0,0.0,2
-7110.18,14685.165,-6153.48,-15258.915,0.0,0.0,0.0,0.0,2
-7078.005,14699.205,-6151.14,-15291.36,0.0,0.0,0.0,0.0,2
-7003.89,14779.305,-6058.89,-15204.33,0.0,0.0,0.0,0.0,2
-7008.975,14774.985,-6063.03,-15202.575,0.0,0.0,0.0,0.0,2
-7094.745,14685.48,-6161.22,-15292.665,0.0,0.0,0.0,0.0,2
-7149.33,14629.635,-6216.705,-15345.765,0.0,0.0,0.0,0.0,2
-7100.235,14681.52,-6170.13,-15285.915,0.0,0.0,0.0,0.0,2
-7059.87,14728.635,-6106.77,-15221.385,0.0,0.0,0.0,0.0,2
-7058.835,14727.645,-6114.87,-15251.58,0.0,0.0,0.0,0.0,2
-7102.44,14679.855,-6156.045,-15294.555,0.0,0.0,0.0,0.0,2
-7096.185,14683.41,-6149.97,-15282.315,0.0,0.0,0.0,0.0,2
-7095.015,14683.77,-6157.53,-15296.085,0.0,0.0,0.0,0.0,2
-7112.115,14665.68,-6178.005,-15313.23,0.0,0.0,0.0,0.0,2
-7093.035,14681.61,-6180.705,-15308.145,0.0,0.0,0.0,0.0,2
-7075.62,14708.97,-6144.615,-15268.455,0.0,0.0,0.0,0.0,2
-7077.87,14713.56,-6112.89,-15243.345,0.0,0.0,0.0,0.0,2
-7083.225,14708.655,-6115.95,-15237.945,0.0,0.0,0.0,0.0,2
-7090.245,14695.515,-6138.18,-15260.4,0.0,0.0,0.0,0.0,2
-7081.83,14701.68,-6141.735,-15282.315,0.0,0.0,0.0,0.0,2
-7083.99,14711.535,-6161.49,-15284.07,0.0,0.0,0.0,0.0,2
-7075.845,14727.42,-6131.52,-15253.515,0.0,0.0,0.0,0.0,2
-7069.86,14716.89,-6105.645,-15245.37,0.0,0.0,0.0,0.0,2
-7062.3,14726.52,-6109.02,-15236.01,0.0,0.0,0.0,0.0,2
-7076.07,14709.195,-6132.105,-15255.63,0.0,0.0,0.0,0.0,2
-7098.57,14678.91,-6162.345,-15285.915,0.0,0.0,0.0,0.0,2
-7112.205,14667.39,-6172.695,-15299.235,0.0,0.0,0.0,0.0,2
-7128.45,14656.095,-6176.295,-15303.555,0.0,0.0,0.0,0.0,2
-7091.73,14696.235,-6134.265,-15266.16,0.0,0.0,0.0,0.0,2
-7082.865,14696.73,-6152.76,-15284.97,0.0,0.0,0.0,0.0,2
-7096.77,14689.98,-6152.94,-15285.015,0.0,0.0,0.0,0.0,2
-7107.57,14679.63,-6159.645,-15289.335,0.0,0.0,0.0,0.0,2
-7098.57,14688.72,-6147.9,-15276.465,0.0,0.0,0.0,0.0,2
-7087.095,14715.09,-6101.37,-15234.03,0.0,0.0,0.0,0.0,2
-7118.19,14691.78,-6131.07,-15260.625,0.0,0.0,0.0,0.0,2
-7119.495,14673.735,-6176.34,-15291.54,0.0,0.0,0.0,0.0,2
-7040.025,14737.095,-6136.83,-15226.065,0.0,0.0,0.0,0.0,2
-7027.605,14754.645,-6102.36,-15199.965,0.0,0.0,0.0,0.0,2
-7077.87,14703.75,-6152.67,-15295.32,0.0,0.0,0.0,0.0,2
-7126.065,14655.33,-6185.205,-15338.16,0.0,0.0,0.0,0.0,2
-7089.57,14698.08,-6127.47,-15269.49,0.0,0.0,0.0,0.0,2
-7048.665,14747.31,-6067.755,-15203.655,0.0,0.0,0.0,0.0,2
-7062.345,14734.71,-6068.7,-15222.42,0.0,0.0,0.0,0.0,2
-7110.855,14677.56,-6143.805,-15278.4,0.0,0.0,0.0,0.0,2
-7082.28,14701.95,-6156.9,-15269.22,0.0,0.0,0.0,0.0,2
-7085.475,14701.995,-6151.095,-15282.54,0.0,0.0,0.0,0.0,2
-7083.63,14710.455,-6138.72,-15272.955,0.0,0.0,0.0,0.0,2
-7080.795,14718.555,-6125.31,-15256.845,0.0,0.0,0.0,0.0,2
-7084.665,14716.53,-6120.045,-15246.765,0.0,0.0,0.0,0.0,2
-7052.265,14750.28,-6085.665,-15207.57,0.0,0.0,0.0,0.0,2
-7051.86,14748.075,-6095.745,-15218.73,0.0,0.0,0.0,0.0,2
-7111.125,14678.28,-6175.305,-15301.53,0.0,0.0,0.0,0.0,2
-7107.705,14680.485,-6171.615,-15298.155,0.0,0.0,0.0,0.0,2
-7055.595,14744.655,-6087.915,-15219.63,0.0,0.0,0.0,0.0,2
-7078.23,14717.61,-6097.68,-15235.47,0.0,0.0,0.0,0.0,2
-7107.975,14695.695,-6140.745,-15264.54,0.0,0.0,0.0,0.0,2
-7101.045,14700.15,-6151.095,-15279.39,0.0,0.0,0.0,0.0,2
-7100.415,14683.365,-6157.89,-15283.62,0.0,0.0,0.0,0.0,2
-7106.445,14677.83,-6162.03,-15286.86,0.0,0.0,0.0,0.0,2
-7117.02,14668.83,-6172.065,-15296.715,0.0,0.0,0.0,0.0,2
-7117.47,14668.155,-6174.315,-15295.365,0.0,0.0,0.0,0.0,2
-7104.42,14678.82,-6173.325,-15286.005,0.0,0.0,0.0,0.0,2
-7066.08,14714.955,-6127.965,-15250.41,0.0,0.0,0.0,0.0,2
-7064.91,14724.405,-6105.24,-15247.08,0.0,0.0,0.0,0.0,2
-7077.42,14714.415,-6114.24,-15248.16,0.0,0.0,0.0,0.0,2
-7092.54,14694.12,-6137.505,-15265.17,0.0,0.0,0.0,0.0,2
-7087.59,14701.14,-6122.565,-15249.42,0.0,0.0,0.0,0.0,2
-7085.97,14712.705,-6109.11,-15229.08,0.0,0.0,0.0,0.0,2
-7083.54,14717.205,-6121.44,-15233.265,0.0,0.0,0.0,0.0,2
-7077.78,14717.97,-6123.24,-15263.595,0.0,0.0,0.0,0.0,2
-7074.36,14713.11,-6116.94,-15251.76,0.0,0.0,0.0,0.0,2
-7082.415,14704.92,-6126.48,-15255.45,0.0,0.0,0.0,0.0,2
-7093.845,14695.02,-6136.965,-15265.215,0.0,0.0,0.0,0.0,2
-7092.765,14697.405,-6138.54,-15269.31,0.0,0.0,0.0,0.0,2
-7097.265,14696.55,-6138.81,-15266.745,0.0,0.0,0.0,0.0,2
-7114.005,14686.515,-6145.965,-15270.255,0.0,0.0,0.0,0.0,2
-7067.295,14742.045,-6086.88,-15205.185,0.0,0.0,0.0,0.0,2
-6995.025,14815.845,-6012.09,-15135.615,0.0,0.0,0.0,0.0,2
-7044.075,14758.065,-6077.52,-15214.59,0.0,0.0,0.0,0.0,2
-7117.56,14670.405,-6168.015,-15302.25,0.0,0.0,0.0,0.0,2
-7105.905,14681.745,-6154.695,-15287.265,0.0,0.0,0.0,0.0,2
-7085.835,14707.53,-6122.61,-15254.28,0.0,0.0,0.0,0.0,2
-7102.44,14701.14,-6128.37,-15247.215,0.0,0.0,0.0,0.0,2
-7109.37,14693.805,-6153.21,-15263.37,0.0,0.0,0.0,0.0,2
-7051.77,14742.09,-6102.855,-15244.065,0.0,0.0,0.0,0.0,2
-7054.515,14738.445,-6107.94,-15243.3,0.0,0.0,0.0,0.0,2
-7104.105,14690.43,-6158.565,-15285.285,0.0,0.0,0.0,0.0,2
-7114.275,14685.885,-6145.47,-15284.61,0.0,0.0,0.0,0.0,2
-7116.525,14688.225,-6136.065,-15272.19,0.0,0.0,0.0,0.0,2
-7110.09,14681.61,-6154.02,-15287.175,0.0,0.0,0.0,0.0,2
-7082.595,14706.945,-6128.28,-15255.405,0.0,0.0,0.0,0.0,2
-7087.14,14713.65,-6119.82,-15241.41,0.0,0.0,0.0,0.0,2
-7109.64,14704.02,-6115.32,-15234.75,0.0,0.0,0.0,0.0,2
-7084.125,14711.085,-6152.67,-15273.675,0.0,0.0,0.0,0.0,2
-7063.65,14718.285,-6114.465,-15257.115,0.0,0.0,0.0,0.0,2
-7087.545,14702.805,-6114.6,-15259.815,0.0,0.0,0.0,0.0,2
-7086.555,14710.455,-6112.305,-15248.34,0.0,0.0,0.0,0.0,2
-7068.6,14735.07,-6088.095,-15219.81,0.0,0.0,0.0,0.0,2
-7068.375,14739.435,-6081.165,-15210.405,0.0,0.0,0.0,0.0,2
-7075.755,14731.29,-6088.77,-15219.765,0.0,0.0,0.0,0.0,2
-7078.005,14726.385,-6091.74,-15232.635,0.0,0.0,0.0,0.0,2
-7096.905,14695.245,-6126.12,-15270.93,0.0,0.0,0.0,0.0,2
-7109.64,14675.355,-6173.955,-15300.09,0.0,0.0,0.0,0.0,2
-7105.5,14690.565,-6145.875,-15266.79,0.0,0.0,0.0,0.0,2
-7107.57,14690.88,-6140.385,-15254.1,0.0,0.0,0.0,0.0,2
-7111.44,14685.975,-6156.135,-15280.335,0.0,0.0,0.0,0.0,2
-7098.255,14701.95,-6142.365,-15288.66,0.0,0.0,0.0,0.0,2
-7092.09,14707.71,-6126.435,-15266.43,0.0,0.0,0.0,0.0,2
-7083.045,14720.58,-6102.945,-15235.695,0.0,0.0,0.0,0.0,2
-7072.38,14730.975,-6102.315,-15228.405,0.0,0.0,0.0,0.0,2
-7070.625,14737.545,-6106.14,-15235.065,0.0,0.0,0.0,0.0,2
-7086.285,14720.355,-6117.12,-15248.295,0.0,0.0,0.0,0.0,2
-7090.155,14709.69,-6128.82,-15262.875,0.0,0.0,0.0,0.0,2
-7082.865,14723.82,-6112.08,-15241.005,0.0,0.0,0.0,0.0,2
-7066.665,14735.79,-6121.305,-15243.3,0.0,0.0,0.0,0.0,2
-7086.78,14708.88,-6135.345,-15259.32,0.0,0.0,0.0,0.0,2
-7114.23,14682.555,-6136.92,-15270.48,0.0,0.0,0.0,0.0,2
-7116.3,14685.48,-6134.67,-15262.695,0.0,0.0,0.0,0.0,2
-7092.135,14709.285,-6128.865,-15244.245,0.0,0.0,0.0,0.0,2
-7095.51,14705.19,-6137.28,-15261.03,0.0,0.0,0.0,0.0,2
-7113.78,14688.72,-6160.32,-15284.07,0.0,0.0,0.0,0.0,2
-7098.03,14713.155,-6132.015,-15253.47,0.0,0.0,0.0,0.0,2
-7106.715,14708.07,-6118.47,-15247.305,0.0,0.0,0.0,0.0,2
-7098.705,14714.55,-6106.5,-15229.665,0.0,0.0,0.0,0.0,2
-7073.55,14722.605,-6109.965,-15228.36,0.0,0.0,0.0,0.0,2
-7056.45,14740.74,-6093.765,-15215.22,0.0,0.0,0.0,0.0,2
-7020.81,14790.78,-6040.8,-15159.915,0.0,0.0,0.0,0.0,2
-7027.56,14780.925,-6050.16,-15174.54,0.0,0.0,0.0,0.0,2
-7095.69,14708.88,-6114.33,-15248.52,0.0,0.0,0.0,0.0,2
-7137.405,14662.26,-6178.545,-15296.355,0.0,0.0,0.0,0.0,2
-7125.705,14659.56,-6187.68,-15289.245,0.0,0.0,0.0,0.0,2
-7105.815,14689.44,-6142.95,-15252.93,0.0,0.0,0.0,0.0,2
-7089.705,14712.975,-6124.455,-15256.665,0.0,0.0,0.0,0.0,2
-7095.87,14700.33,-6136.515,-15264.45,0.0,0.0,0.0,0.0,2
-7098.345,14696.73,-6136.83,-15259.995,0.0,0.0,0.0,0.0,2
-7107.84,14692.545,-6140.475,-15264.63,0.0,0.0,0.0,0.0,2
-7111.035,14691.015,-6134.985,-15260.67,0.0,0.0,0.0,0.0,2
-7114.455,14686.56,-6131.565,-15254.775,0.0,0.0,0.0,0.0,2
-7105.68,14694.84,-6152.265,-15262.515,0.0,0.0,0.0,0.0,2
-7081.335,14717.835,-6135.84,-15259.5,0.0,0.0,0.0,0.0,2
-7052.265,14745.735,-6094.215,-15225.795,0.0,0.0,0.0,0.0,2
-7069.635,14730.345,-6110.955,-15232.275,0.0,0.0,0.0,0.0,2
-7120.53,14671.575,-6179.49,-15289.47,0.0,0.0,0.0,0.0,2
-7117.11,14676.525,-6156.54,-15272.685,0.0,0.0,0.0,0.0,2
-7100.19,14698.395,-6125.67,-15255.18,0.0,0.0,0.0,0.0,2
-7089.21,14714.28,-6117.795,-15247.62,0.0,0.0,0.0,0.0,2
-7077.87,14734.575,-6107.22,-15222.465,0.0,0.0,0.0,0.0,2
-7092.99,14716.35,-6139.17,-15233.535,0.0,0.0,0.0,0.0,2
-7119.675,14689.035,-6127.02,-15255.0,0.0,0.0,0.0,0.0,2
-7108.515,14701.635,-6088.545,-15251.58,0.0,0.0,0.0,0.0,2
-7109.145,14690.43,-6142.05,-15265.305,0.0,0.0,0.0,0.0,2
-7106.49,14691.645,-6152.31,-15277.77,0.0,0.0,0.0,0.0,2
-7101.54,14697.855,-6132.33,-15256.485,0.0,0.0,0.0,0.0,2
-7083.855,14718.915,-6107.715,-15238.755,0.0,0.0,0.0,0.0,2
-7080.525,14726.655,-6105.555,-15236.82,0.0,0.0,0.0,0.0,2
-7100.865,14700.78,-6131.295,-15258.96,0.0,0.0,0.0,0.0,2
-7104.87,14696.145,-6136.245,-15259.59,0.0,0.0,0.0,0.0,2
-7098.03,14705.46,-6130.98,-15245.82,0.0,0.0,0.0,0.0,2
-7101.72,14703.21,-6127.83,-15239.745,0.0,0.0,0.0,0.0,2
-7107.12,14697.36,-6139.98,-15257.25,0.0,0.0,0.0,0.0,2
-7110.63,14698.485,-6131.115,-15256.305,0.0,0.0,0.0,0.0,2
-7108.155,14702.985,-6123.42,-15256.215,0.0,0.0,0.0,0.0,2
-7100.955,14708.295,-6123.375,-15261.345,0.0,0.0,0.0,0.0,2
-7104.825,14700.15,-6147.09,-15268.095,0.0,0.0,0.0,0.0,2
-7100.19,14709.105,-6121.665,-15253.74,0.0,0.0,0.0,0.0,2
-7081.47,14726.34,-6111.27,-15238.305,0.0,0.0,0.0,0.0,2
-7081.515,14728.5,-6113.115,-15230.205,0.0,0.0,0.0,0.0,2
-7100.82,14710.545,-6124.32,-15244.515,0.0,0.0,0.0,0.0,2
-7137.495,14676.255,-6153.75,-15275.925,0.0,0.0,0.0,0.0,2
-7124.715,14695.47,-6126.975,-15258.195,0.0,0.0,0.0,0.0,2
-7055.64,14750.775,-6077.385,-15209.595,0.0,0.0,0.0,0.0,2
-7070.13,14735.835,-6107.76,-15231.015,0.0,0.0,0.0,0.0,2
-7070.445,14739.885,-6096.555,-15222.645,0.0,0.0,0.0,0.0,2
-7037.1,14775.3,-6057.855,-15179.175,0.0,0.0,0.0,0.0,2
-7060.545,14745.42,-6090.885,-15211.53,0.0,0.0,0.0,0.0,2
-7126.83,14674.14,-6161.22,-15280.245,0.0,0.0,0.0,0.0,2
-7133.355,14666.58,-6174.9,-15287.535,0.0,0.0,0.0,0.0,2
-7129.845,14665.545,-6186.915,-15298.02,0.0,0.0,0.0,0.0,2
-7087.725,14714.28,-6132.69,-15259.59,0.0,0.0,0.0,0.0,2
-7044.345,14770.035,-6068.34,-15197.175,0.0,0.0,0.0,0.0,2
-7056.045,14751.72,-6077.34,-15201.405,0.0,0.0,0.0,0.0,2
-7128.45,14666.76,-6157.035,-15291.405,0.0,0.0,0.0,0.0,2
-7181.82,14614.83,-6204.24,-15336.315,0.0,0.0,0.0,0.0,2
-7138.665,14658.435,-6162.615,-15284.7,0.0,0.0,0.0,0.0,2
-7113.915,14684.58,-6137.01,-15255.945,0.0,0.0,0.0,0.0,2
-7112.25,14687.01,-6139.305,-15264.765,0.0,0.0,0.0,0.0,2
-7103.61,14696.055,-6133.275,-15265.8,0.0,0.0,0.0,0.0,2
-7110.18,14693.535,-6134.625,-15266.475,0.0,0.0,0.0,0.0,2
-7122.24,14685.795,-6134.445,-15267.78,0.0,0.0,0.0,0.0,2
-7112.43,14691.915,-6125.22,-15256.08,0.0,0.0,0.0,0.0,2
-7103.97,14699.835,-6125.58,-15241.86,0.0,0.0,0.0,0.0,2
-7111.08,14690.52,-6145.065,-15248.88,0.0,0.0,0.0,0.0,2
-7118.82,14680.53,-6176.97,-15283.845,0.0,0.0,0.0,0.0,2
-7115.355,14689.215,-6137.19,-15258.78,0.0,0.0,0.0,0.0,2
-7111.485,14698.17,-6116.13,-15249.645,0.0,0.0,0.0,0.0,2
-7126.515,14687.235,-6134.13,-15279.48,0.0,0.0,0.0,0.0,2
-7118.82,14690.79,-6145.83,-15270.57,0.0,0.0,0.0,0.0,2
-7094.565,14710.545,-6122.205,-15245.82,0.0,0.0,0.0,0.0,2
-7109.46,14701.41,-6129.405,-15257.79,0.0,0.0,0.0,0.0,2
-7102.98,14705.82,-6129.405,-15255.765,0.0,0.0,0.0,0.0,2
-7088.67,14717.61,-6117.75,-15244.92,0.0,0.0,0.0,0.0,2
-7095.465,14714.91,-6112.305,-15245.91,0.0,0.0,0.0,0.0,2
-7104.69,14708.205,-6123.87,-15251.58,0.0,0.0,0.0,0.0,2
-7104.96,14706.72,-6139.71,-15255.045,0.0,0.0,0.0,0.0,2
-7092.405,14716.935,-6135.21,-15261.12,0.0,0.0,0.0,0.0,2
-7093.62,14717.115,-6127.245,-15254.955,0.0,0.0,0.0,0.0,2
-7102.8,14709.96,-6118.605,-15252.795,0.0,0.0,0.0,0.0,2
-7124.4,14695.425,-6130.755,-15256.845,0.0,0.0,0.0,0.0,2
-7152.975,14669.01,-6169.95,-15282.0,0.0,0.0,0.0,0.0,2
-7122.78,14688.945,-6137.19,-15248.88,0.0,0.0,0.0,0.0,2
-7100.82,14706.72,-6104.25,-15228.72,0.0,0.0,0.0,0.0,2
-7116.3,14692.59,-6133.77,-15273.09,0.0,0.0,0.0,0.0,2
-7092.09,14722.155,-6105.105,-15249.285,0.0,0.0,0.0,0.0,2
-7088.805,14722.38,-6098.67,-15239.115,0.0,0.0,0.0,0.0,2
-7083.045,14725.755,-6111.72,-15239.07,0.0,0.0,0.0,0.0,2
-7072.965,14743.845,-6080.94,-15211.575,0.0,0.0,0.0,0.0,2
-7079.715,14738.22,-6081.48,-15213.105,0.0,0.0,0.0,0.0,2
-7094.295,14718.87,-6106.275,-15232.545,0.0,0.0,0.0,0.0,2
-7106.04,14703.165,-6124.095,-15247.98,0.0,0.0,0.0,0.0,2
-7093.08,14714.82,-6119.865,-15245.82,0.0,0.0,0.0,0.0,2
-7099.2,14705.055,-6131.835,-15262.2,0.0,0.0,0.0,0.0,2
-7118.28,14685.3,-6146.73,-15276.6,0.0,0.0,0.0,0.0,2
-7123.14,14685.93,-6140.925,-15267.015,0.0,0.0,0.0,0.0,2
-7109.145,14704.335,-6119.955,-15241.455,0.0,0.0,0.0,0.0,2
-7109.865,14701.275,-6129.81,-15256.845,0.0,0.0,0.0,0.0,2
-7106.67,14707.53,-6118.605,-15243.705,0.0,0.0,0.0,0.0,2
-7098.57,14725.26,-6097.455,-15220.71,0.0,0.0,0.0,0.0,2
-7099.695,14722.335,-6101.505,-15226.425,0.0,0.0,0.0,0.0,2
-7114.365,14706.585,-6121.08,-15250.995,0.0,0.0,0.0,0.0,2
-7139.97,14677.695,-6152.58,-15285.15,0.0,0.0,0.0,0.0,2
-7119.945,14693.58,-6130.665,-15264.18,0.0,0.0,0.0,0.0,2
-7062.075,14745.915,-6072.12,-15205.23,0.0,0.0,0.0,0.0,2
-7043.85,14762.385,-6069.465,-15178.365,0.0,0.0,0.0,0.0,2
-7079.355,14731.11,-6112.17,-15202.44,0.0,0.0,0.0,0.0,2
-7127.37,14678.955,-6181.56,-15282.945,0.0,0.0,0.0,0.0,2
-7147.755,14660.19,-6172.425,-15304.815,0.0,0.0,0.0,0.0,2
-7126.74,14685.075,-6127.245,-15275.34,0.0,0.0,0.0,0.0,2
-7103.7,14713.02,-6104.97,-15243.57,0.0,0.0,0.0,0.0,2
-7107.705,14709.195,-6116.085,-15249.015,0.0,0.0,0.0,0.0,2
-7116.93,14699.43,-6115.455,-15249.645,0.0,0.0,0.0,0.0,2
-7109.01,14704.47,-6114.96,-15240.195,0.0,0.0,0.0,0.0,2
-7112.34,14696.055,-6142.23,-15254.37,0.0,0.0,0.0,0.0,2
-7116.57,14693.265,-6138.495,-15256.17,0.0,0.0,0.0,0.0,2
-7122.69,14691.735,-6137.955,-15257.97,0.0,0.0,0.0,0.0,2
-7114.14,14710.095,-6125.625,-15244.695,0.0,0.0,0.0,0.0,2
-7104.105,14717.745,-6119.685,-15235.56,0.0,0.0,0.0,0.0,2
-7129.17,14693.85,-6140.385,-15262.695,0.0,0.0,0.0,0.0,2
-7144.965,14682.33,-6141.51,-15267.105,0.0,0.0,0.0,0.0,2
-7089.75,14728.95,-6092.19,-15217.335,0.0,0.0,0.0,0.0,2
-7089.705,14717.025,-6096.555,-15218.19,0.0,0.0,0.0,0.0,2
-7118.01,14691.78,-6114.42,-15239.34,0.0,0.0,0.0,0.0,2
-7104.015,14702.13,-6121.89,-15238.665,0.0,0.0,0.0,0.0,2
-7099.965,14711.265,-6126.345,-15239.7,0.0,0.0,0.0,0.0,2
-7123.275,14692.455,-6134.04,-15253.74,0.0,0.0,0.0,0.0,2
-7144.74,14675.04,-6151.275,-15280.29,0.0,0.0,0.0,0.0,2
-7135.02,14677.335,-6147.135,-15272.505,0.0,0.0,0.0,0.0,2
-7116.39,14683.635,-6179.04,-15279.795,0.0,0.0,0.0,0.0,2
-7101.585,14710.635,-6133.86,-15231.555,0.0,0.0,0.0,0.0,2
-7103.88,14721.075,-6086.565,-15213.195,0.0,0.0,0.0,0.0,2
-7112.565,14703.12,-6112.125,-15236.82,0.0,0.0,0.0,0.0,2
-7125.165,14685.66,-6142.32,-15259.365,0.0,0.0,0.0,0.0,2
-7115.085,14700.735,-6126.615,-15246.99,0.0,0.0,0.0,0.0,2
-7110.81,14705.235,-6121.935,-15244.47,0.0,0.0,0.0,0.0,2
-7108.83,14706.315,-6124.23,-15244.74,0.0,0.0,0.0,0.0,2
-7128.315,14687.37,-6145.02,-15250.905,0.0,0.0,0.0,0.0,2
-7153.56,14672.97,-6153.795,-15255.495,0.0,0.0,0.0,0.0,2
-7161.93,14670.765,-6148.62,-15264.495,0.0,0.0,0.0,0.0,2
-7122.78,14702.265,-6109.065,-15226.065,0.0,0.0,0.0,0.0,2
-7094.745,14723.055,-6090.66,-15193.08,0.0,0.0,0.0,0.0,2
-7078.005,14736.015,-6099.12,-15215.805,0.0,0.0,0.0,0.0,2
-7121.295,14695.785,-6127.65,-15252.795,0.0,0.0,0.0,0.0,2
-7117.875,14697.63,-6132.33,-15255.9,0.0,0.0,0.0,0.0,2
-7089.03,14726.925,-6110.595,-15231.87,0.0,0.0,0.0,0.0,2
-7096.545,14719.995,-6110.64,-15230.475,0.0,0.0,0.0,0.0,2
-7134.03,14682.78,-6138.54,-15254.955,0.0,0.0,0.0,0.0,2
-7151.22,14673.735,-6147.18,-15262.38,0.0,0.0,0.0,0.0,2
-7123.5,14695.47,-6140.205,-15249.78,0.0,0.0,0.0,0.0,2
-7093.89,14724.45,-6108.84,-15225.03,0.0,0.0,0.0,0.0,2
-7105.005,14713.65,-6124.905,-15248.115,0.0,0.0,0.0,0.0,2
-7106.94,14716.845,-6120.855,-15241.32,0.0,0.0,0.0,0.0,2
-7081.335,14750.01,-6076.62,-15199.02,0.0,0.0,0.0,0.0,2
-7072.92,14759.82,-6066.27,-15179.49,0.0,0.0,0.0,0.0,2
-7129.755,14696.01,-6131.385,-15238.98,0.0,0.0,0.0,0.0,2
-7169.895,14647.86,-6192.495,-15284.655,0.0,0.0,0.0,0.0,2
-7143.705,14678.37,-6156.045,-15251.13,0.0,0.0,0.0,0.0,2
-7124.49,14710.23,-6108.615,-15233.94,0.0,0.0,0.0,0.0,2
-7114.41,14716.98,-6105.555,-15229.35,0.0,0.0,0.0,0.0,2
-7075.845,14747.805,-6076.215,-15195.15,0.0,0.0,0.0,0.0,2
-7064.955,14752.53,-6082.92,-15196.455,0.0,0.0,0.0,0.0,2
-7099.335,14717.925,-6120.45,-15228.315,0.0,0.0,0.0,0.0,2
-7091.055,14731.785,-6092.1,-15212.16,0.0,0.0,0.0,0.0,2
-7108.515,14708.97,-6107.175,-15219.63,0.0,0.0,0.0,0.0,2
-7115.04,14694.795,-6128.91,-15239.655,0.0,0.0,0.0,0.0,2
-7125.03,14697.72,-6121.935,-15233.805,0.0,0.0,0.0,0.0,2
-7110.675,14725.395,-6094.935,-15204.96,0.0,0.0,0.0,0.0,2
-7102.665,14720.895,-6102.72,-15211.62,0.0,0.0,0.0,0.0,2
-7098.3,14714.73,-6089.58,-15209.055,0.0,0.0,0.0,0.0,2
-7117.065,14696.505,-6123.78,-15244.245,0.0,0.0,0.0,0.0,2
-7138.305,14674.455,-6169.905,-15279.525,0.0,0.0,0.0,0.0,2
-7150.005,14671.71,-6163.875,-15262.74,0.0,0.0,0.0,0.0,2
-7151.805,14671.485,-6152.265,-15260.94,0.0,0.0,0.0,0.0,2
-7136.055,14684.22,-6134.13,-15252.21,0.0,0.0,0.0,0.0,2
-7125.795,14695.785,-6126.03,-15244.2,0.0,0.0,0.0,0.0,2
-7122.42,14698.08,-6126.705,-15244.245,0.0,0.0,0.0,0.0,2
-7105.095,14716.53,-6102.045,-15214.545,0.0,0.0,0.0,0.0,2
-7108.515,14713.38,-6104.61,-15225.615,0.0,0.0,0.0,0.0,2
-7112.205,14708.745,-6115.995,-15251.805,0.0,0.0,0.0,0.0,2
-7119.495,14707.44,-6132.825,-15244.155,0.0,0.0,0.0,0.0,2
-7124.58,14708.07,-6116.76,-15227.685,0.0,0.0,0.0,0.0,2
-7128.585,14699.16,-6126.345,-15241.545,0.0,0.0,0.0,0.0,2
-7115.4,14710.095,-6107.58,-15232.14,0.0,0.0,0.0,0.0,2
-7114.41,14717.025,-6089.67,-15219.36,0.0,0.0,0.0,0.0,2
-7112.43,14708.205,-6151.41,-15253.695,0.0,0.0,0.0,0.0,2
-7106.805,14716.395,-6149.52,-15259.23,0.0,0.0,0.0,0.0,2
-7108.02,14726.835,-6108.255,-15226.695,0.0,0.0,0.0,0.0,2
-7115.175,14714.91,-6102.495,-15218.235,0.0,0.0,0.0,0.0,2
-7142.625,14691.375,-6125.58,-15237.0,0.0,0.0,0.0,0.0,2
-7147.215,14691.15,-6131.97,-15249.285,0.0,0.0,0.0,0.0,2
-7112.43,14721.255,-6096.96,-15219.54,0.0,0.0,0.0,0.0,2
-7094.205,14731.785,-6092.37,-15213.015,0.0,0.0,0.0,0.0,2
-7119.675,14702.22,-6129.27,-15257.475,0.0,0.0,0.0,0.0,2
-7121.97,14705.37,-6119.775,-15243.795,0.0,0.0,0.0,0.0,2
-7123.455,14705.46,-6117.795,-15229.98,0.0,0.0,0.0,0.0,2
-7121.88,14705.01,-6109.965,-15228.81,0.0,0.0,0.0,0.0,2
-7104.555,14726.475,-6092.145,-15218.145,0.0,0.0,0.0,0.0,2
-7105.005,14724.54,-6108.255,-15228.99,0.0,0.0,0.0,0.0,2
-7133.85,14693.355,-6135.03,-15255.09,0.0,0.0,0.0,0.0,2
-7118.73,14710.185,-6112.89,-15231.915,0.0,0.0,0.0,0.0,2
-7061.985,14774.355,-6046.83,-15170.265,0.0,0.0,0.0,0.0,2
-7102.665,14734.89,-6081.48,-15208.245,0.0,0.0,0.0,0.0,2
-7165.755,14666.58,-6138.045,-15267.555,0.0,0.0,0.0,0.0,2
-7139.115,14684.805,-6135.03,-15253.965,0.0,0.0,0.0,0.0,2
-7107.93,14708.205,-6123.465,-15236.82,0.0,0.0,0.0,0.0,2
-7090.695,14739.39,-6085.08,-15199.155,0.0,0.0,0.0,0.0,2
-7119.315,14723.37,-6096.015,-15211.395,0.0,0.0,0.0,0.0,2
-7157.52,14680.485,-6143.85,-15262.2,0.0,0.0,0.0,0.0,2
-7144.02,14674.905,-6149.34,-15267.105,0.0,0.0,0.0,0.0,2
-7099.47,14718.555,-6111.27,-15231.78,0.0,0.0,0.0,0.0,2
-7096.545,14728.455,-6111.09,-15227.55,0.0,0.0,0.0,0.0,2
-7092.72,14736.06,-6089.94,-15208.92,0.0,0.0,0.0,0.0,2
-7111.53,14714.055,-6107.31,-15238.89,0.0,0.0,0.0,0.0,2
-7145.865,14681.835,-6136.965,-15258.645,0.0,0.0,0.0,0.0,2
-7138.35,14688.27,-6130.98,-15249.69,0.0,0.0,0.0,0.0,2
-7110.405,14718.33,-6100.65,-15213.06,0.0,0.0,0.0,0.0,2
-7100.955,14728.14,-6101.01,-15201.81,0.0,0.0,0.0,0.0,2
-7102.08,14729.13,-6118.47,-15235.47,0.0,0.0,0.0,0.0,2
-7139.25,14693.76,-6129.36,-15271.74,0.0,0.0,0.0,0.0,2
-7138.35,14689.53,-6096.015,-15245.055,0.0,0.0,0.0,0.0,2
-7114.23,14711.355,-6104.34,-15224.67,0.0,0.0,0.0,0.0,2
-7127.685,14707.665,-6124.455,-15234.21,0.0,0.0,0.0,0.0,2
-7137.765,14700.06,-6119.775,-15234.84,0.0,0.0,0.0,0.0,2
-7111.305,14722.065,-6096.51,-15208.515,0.0,0.0,0.0,0.0,2
-7109.82,14717.43,-6101.1,-15211.08,0.0,0.0,0.0,0.0,2
-7133.985,14691.96,-6132.915,-15253.02,0.0,0.0,0.0,0.0,2
-7135.425,14696.19,-6114.735,-15233.265,0.0,0.0,0.0,0.0,2
-7134.84,14698.575,-6106.365,-15230.34,0.0,0.0,0.0,0.0,2
-7131.33,14696.235,-6135.84,-15254.28,0.0,0.0,0.0,0.0,2
-7131.51,14697.27,-6127.785,-15248.07,0.0,0.0,0.0,0.0,2
-7127.46,14707.26,-6110.775,-15229.575,0.0,0.0,0.0,0.0,2
-7134.48,14700.555,-6114.105,-15233.085,0.0,0.0,0.0,0.0,2
-7141.5,14689.98,-6121.305,-15242.175,0.0,0.0,0.0,0.0,2
-7111.665,14715.405,-6114.555,-15229.485,0.0,0.0,0.0,0.0,2
-7104.06,14722.02,-6116.94,-15225.93,0.0,0.0,0.0,0.0,2
-7124.22,14702.535,-6115.635,-15229.62,0.0,0.0,0.0,0.0,2
-7134.03,14692.815,-6122.205,-15240.195,0.0,0.0,0.0,0.0,2
-7134.615,14697.27,-6114.33,-15236.37,0.0,0.0,0.0,0.0,2
-7125.93,14704.74,-6088.455,-15221.745,0.0,0.0,0.0,0.0,2
-7127.955,14703.21,-6090.39,-15214.995,0.0,0.0,0.0,0.0,2
-7131.825,14693.625,-6129.54,-15230.385,0.0,0.0,0.0,0.0,2
-7145.505,14686.38,-6141.96,-15254.64,0.0,0.0,0.0,0.0,2
-7140.915,14698.845,-6121.125,-15242.355,0.0,0.0,0.0,0.0,2
-7104.87,14722.245,-6096.465,-15217.38,0.0,0.0,0.0,0.0,2
-7108.245,14709.465,-6109.155,-15225.12,0.0,0.0,0.0,0.0,2
-7125.975,14697.495,-6133.23,-15235.155,0.0,0.0,0.0,0.0,2
-7132.59,14694.21,-6164.82,-15258.87,0.0,0.0,0.0,0.0,2
-7113.285,14724.855,-6107.985,-15222.105,0.0,0.0,0.0,0.0,2
-7114.455,14722.155,-6064.605,-15170.985,0.0,0.0,0.0,0.0,2
-7141.725,14687.055,-6112.395,-15216.075,0.0,0.0,0.0,0.0,2
-7129.575,14708.385,-6095.115,-15231.195,0.0,0.0,0.0,0.0,2
-7076.205,14761.935,-6044.04,-15164.82,0.0,0.0,0.0,0.0,2
-7060.5,14765.805,-6048.63,-15165.09,0.0,0.0,0.0,0.0,2
-7115.49,14706.495,-6106.77,-15218.82,0.0,0.0,0.0,0.0,2
-7146.855,14675.13,-6138.405,-15248.385,0.0,0.0,0.0,0.0,2
-7142.985,14676.21,-6136.38,-15250.005,0.0,0.0,0.0,0.0,2
-7137.54,14687.595,-6116.895,-15233.31,0.0,0.0,0.0,0.0,2
-7152.345,14673.06,-6145.74,-15252.66,0.0,0.0,0.0,0.0,2
-7151.985,14671.08,-6148.44,-15256.71,0.0,0.0,0.0,0.0,2
-7121.745,14705.46,-6101.28,-15220.71,0.0,0.0,0.0,0.0,2
-7108.605,14719.23,-6088.23,-15208.515,0.0,0.0,0.0,0.0,2
-7133.625,14689.26,-6139.755,-15244.155,0.0,0.0,0.0,0.0,2
-7138.44,14690.07,-6129.54,-15233.805,0.0,0.0,0.0,0.0,2
-7127.505,14703.57,-6113.655,-15217.605,0.0,0.0,0.0,0.0,2
-7123.59,14704.2,-6111.99,-15216.75,0.0,0.0,0.0,0.0,2
-7122.735,14710.995,-6104.7,-15212.07,0.0,0.0,0.0,0.0,2
-7136.145,14700.825,-6110.955,-15220.845,0.0,0.0,0.0,0.0,2
-7157.655,14670.585,-6143.895,-15249.105,0.0,0.0,0.0,0.0,2
-7121.565,14708.295,-6110.46,-15218.415,0.0,0.0,0.0,0.0,2
-7092.27,14735.385,-6080.535,-15194.835,0.0,0.0,0.0,0.0,2
-7128.9,14695.83,-6117.12,-15225.93,0.0,0.0,0.0,0.0,2
-7137.855,14685.975,-6126.48,-15231.825,0.0,0.0,0.0,0.0,2
-7124.04,14703.84,-6115.14,-15217.425,0.0,0.0,0.0,0.0,2
-7119.405,14708.97,-6110.82,-15215.355,0.0,0.0,0.0,0.0,2
-7116.48,14712.57,-6105.825,-15212.97,0.0,0.0,0.0,0.0,2
-7106.22,14727.87,-6088.68,-15198.84,0.0,0.0,0.0,0.0,2
-7135.425,14700.96,-6115.59,-15225.48,0.0,0.0,0.0,0.0,2
-7175.43,14663.52,-6149.385,-15256.845,0.0,0.0,0.0,0.0,2
-7164.18,14674.725,-6137.28,-15236.415,0.0,0.0,0.0,0.0,2
-7140.6,14686.83,-6144.975,-15233.67,0.0,0.0,0.0,0.0,2
-7115.31,14706.855,-6146.235,-15232.185,0.0,0.0,0.0,0.0,2
-7128.27,14704.245,-6123.15,-15226.605,0.0,0.0,0.0,0.0,2
-7131.915,14707.26,-6112.53,-15215.805,0.0,0.0,0.0,0.0,2
-7110.09,14725.575,-6075.765,-15181.515,0.0,0.0,0.0,0.0,2
-7119.36,14709.645,-6104.025,-15219.09,0.0,0.0,0.0,0.0,2
-7126.695,14702.04,-6118.155,-15228.18,0.0,0.0,0.0,0.0,2
-7107.795,14724.135,-6093.45,-15202.26,0.0,0.0,0.0,0.0,2
-7118.82,14712.75,-6104.565,-15207.885,0.0,0.0,0.0,0.0,2
-7135.245,14693.13,-6120.045,-15224.715,0.0,0.0,0.0,0.0,2
-7132.185,14704.38,-6101.64,-15211.845,0.0,0.0,0.0,0.0,2
-7142.04,14693.31,-6122.25,-15226.065,0.0,0.0,0.0,0.0,2
-7147.98,14683.095,-6135.705,-15239.745,0.0,0.0,0.0,0.0,2
-7137.63,14695.965,-6106.095,-15220.305,0.0,0.0,0.0,0.0,2
-7140.33,14690.88,-6110.145,-15212.295,0.0,0.0,0.0,0.0,2
-7138.08,14694.075,-6116.22,-15211.665,0.0,0.0,0.0,0.0,2
-7120.755,14707.17,-6135.75,-15234.93,0.0,0.0,0.0,0.0,2
-7123.59,14712.975,-6118.74,-15223.185,0.0,0.0,0.0,0.0,2
-7111.485,14741.37,-6066.18,-15172.425,0.0,0.0,0.0,0.0,2
-7084.44,14766.615,-6044.67,-15146.01,0.0,0.0,0.0,0.0,2
-7095.015,14741.685,-6084.36,-15195.465,0.0,0.0,0.0,0.0,2
-7098.03,14737.41,-6086.7,-15200.1,0.0,0.0,0.0,0.0,2
-7111.305,14733.36,-6085.8,-15194.655,0.0,0.0,0.0,0.0,2
-7165.125,14671.305,-6160.77,-15262.02,0.0,0.0,0.0,0.0,2
-7169.085,14666.895,-6170.085,-15264.225,0.0,0.0,0.0,0.0,2
-7161.21,14683.23,-6129.855,-15240.69,0.0,0.0,0.0,0.0,2
-7155.495,14697.36,-6104.52,-15224.805,0.0,0.0,0.0,0.0,2
-7172.64,14687.28,-6135.93,-15240.87,0.0,0.0,0.0,0.0,2
-7182.18,14670.495,-6144.39,-15254.415,0.0,0.0,0.0,0.0,2
-7142.265,14689.575,-6124.23,-15234.75,0.0,0.0,0.0,0.0,2
-7112.7,14720.445,-6098.49,-15205.68,0.0,0.0,0.0,0.0,2
-7126.56,14706.675,-6108.48,-15209.28,0.0,0.0,0.0,0.0,2
-7131.825,14700.285,-6128.01,-15239.835,0.0,0.0,0.0,0.0,2
-7120.395,14717.205,-6103.845,-15221.205,0.0,0.0,0.0,0.0,2
-7124.715,14714.955,-6082.965,-15203.385,0.0,0.0,0.0,0.0,2
-7133.265,14704.02,-6097.86,-15209.415,0.0,0.0,0.0,0.0,2
-7132.05,14708.16,-6109.785,-15214.905,0.0,0.0,0.0,0.0,2
-7132.59,14712.57,-6102.765,-15215.49,0.0,0.0,0.0,0.0,2
-7122.915,14720.49,-6093.81,-15208.65,0.0,0.0,0.0,0.0,2
-7111.215,14726.16,-6086.79,-15202.62,0.0,0.0,0.0,0.0,2
-7135.83,14703.795,-6103.665,-15218.55,0.0,0.0,0.0,0.0,2
-7137.27,14701.815,-6112.575,-15223.005,0.0,0.0,0.0,0.0,2
-7133.355,14704.29,-6114.33,-15222.285,0.0,0.0,0.0,0.0,2
-7134.39,14705.145,-6108.57,-15217.965,0.0,0.0,0.0,0.0,2
-7136.595,14703.615,-6111.315,-15226.74,0.0,0.0,0.0,0.0,2
-7146.855,14697.495,-6117.57,-15234.705,0.0,0.0,0.0,0.0,2
-7168.815,14682.105,-6132.555,-15250.365,0.0,0.0,0.0,0.0,2
-7166.745,14682.87,-6134.85,-15250.455,0.0,0.0,0.0,0.0,2
-7109.865,14727.195,-6093.495,-15207.705,0.0,0.0,0.0,0.0,2
-7099.425,14738.085,-6072.12,-15192.495,0.0,0.0,0.0,0.0,2
-7115.355,14728.725,-6079.365,-15192.27,0.0,0.0,0.0,0.0,2
-7132.5,14709.555,-6108.84,-15219.27,0.0,0.0,0.0,0.0,2
-7150.95,14686.92,-6129.405,-15241.995,0.0,0.0,0.0,0.0,2
-7136.37,14704.785,-6114.195,-15228.045,0.0,0.0,0.0,0.0,2
-7113.915,14735.475,-6082.065,-15199.875,0.0,0.0,0.0,0.0,2
-7126.02,14724.45,-6092.145,-15210.63,0.0,0.0,0.0,0.0,2
-7151.76,14692.86,-6123.195,-15239.295,0.0,0.0,0.0,0.0,2
-7142.985,14700.375,-6118.47,-15230.43,0.0,0.0,0.0,0.0,2
-7135.74,14709.78,-6121.485,-15218.415,0.0,0.0,0.0,0.0,2
-7133.265,14710.68,-6125.805,-15224.445,0.0,0.0,0.0,0.0,2
-7130.835,14711.4,-6105.915,-15229.755,0.0,0.0,0.0,0.0,2
-7115.67,14730.705,-6067.44,-15192.18,0.0,0.0,0.0,0.0,2
-7102.89,14752.755,-6049.53,-15169.59,0.0,0.0,0.0,0.0,2
-7114.365,14740.335,-6068.97,-15188.985,0.0,0.0,0.0,0.0,2
-7156.395,14689.62,-6122.43,-15239.925,0.0,0.0,0.0,0.0,2
-7148.52,14696.37,-6115.455,-15231.915,0.0,0.0,0.0,0.0,2
-7134.615,14721.435,-6081.03,-15188.895,0.0,0.0,0.0,0.0,2
-7166.52,14695.335,-6084.405,-15189.57,0.0,0.0,0.0,0.0,2
-7164.315,14679.855,-6133.095,-15237.27,0.0,0.0,0.0,0.0,2
-7098.66,14730.84,-6106.185,-15217.875,0.0,0.0,0.0,0.0,2
-7124.445,14712.48,-6116.715,-15246.045,0.0,0.0,0.0,0.0,2
-7146.495,14697.63,-6123.42,-15247.89,0.0,0.0,0.0,0.0,2
-7146.18,14701.23,-6118.56,-15240.87,0.0,0.0,0.0,0.0,2
-7136.325,14710.185,-6107.895,-15229.215,0.0,0.0,0.0,0.0,2
-7131.87,14712.075,-6109.92,-15229.62,0.0,0.0,0.0,0.0,2
-7152.39,14692.005,-6138.72,-15253.245,0.0,0.0,0.0,0.0,2
-7166.475,14687.46,-6132.105,-15242.355,0.0,0.0,0.0,0.0,2
-7152.165,14702.76,-6100.245,-15214.59,0.0,0.0,0.0,0.0,2
-7121.925,14732.235,-6072.39,-15184.935,0.0,0.0,0.0,0.0,2
-7120.98,14721.795,-6095.7,-15221.43,0.0,0.0,0.0,0.0,2
-7144.29,14699.025,-6114.105,-15240.15,0.0,0.0,0.0,0.0,2
-7140.375,14705.145,-6123.42,-15240.24,0.0,0.0,0.0,0.0,2
-7139.925,14704.695,-6131.115,-15243.345,0.0,0.0,0.0,0.0,2
-7142.76,14703.435,-6114.24,-15229.44,0.0,0.0,0.0,0.0,2
-7136.415,14712.57,-6095.655,-15214.77,0.0,0.0,0.0,0.0,2
-7149.69,14703.795,-6108.795,-15224.355,0.0,0.0,0.0,0.0,2
-7167.645,14684.625,-6127.47,-15241.5,0.0,0.0,0.0,0.0,2
-7122.6,14723.46,-6091.29,-15208.29,0.0,0.0,0.0,0.0,2
-7103.07,14740.2,-6076.89,-15198.93,0.0,0.0,0.0,0.0,2
-7131.645,14713.11,-6102.315,-15220.89,0.0,0.0,0.0,0.0,2
-7132.86,14714.955,-6097.86,-15214.77,0.0,0.0,0.0,0.0,2
-7132.05,14712.3,-6100.515,-15215.985,0.0,0.0,0.0,0.0,2
-7131.465,14707.935,-6103.485,-15216.795,0.0,0.0,0.0,0.0,2
-7144.425,14693.31,-6119.055,-15232.365,0.0,0.0,0.0,0.0,2
-7134.21,14704.155,-6126.165,-15233.445,0.0,0.0,0.0,0.0,2
-7130.7,14709.555,-6138.9,-15228.405,0.0,0.0,0.0,0.0,2
-7145.415,14699.43,-6119.1,-15234.075,0.0,0.0,0.0,0.0,2
-7148.115,14699.835,-6079.68,-15222.375,0.0,0.0,0.0,0.0,2
-7126.11,14716.17,-6082.83,-15207.57,0.0,0.0,0.0,0.0,2
-7125.255,14714.64,-6102.855,-15217.245,0.0,0.0,0.0,0.0,2
-7136.685,14709.465,-6100.065,-15213.375,0.0,0.0,0.0,0.0,2
-7146.045,14700.285,-6106.275,-15223.23,0.0,0.0,0.0,0.0,2
-7147.44,14699.385,-6099.39,-15222.555,0.0,0.0,0.0,0.0,2
-7132.455,14713.155,-6094.98,-15213.87,0.0,0.0,0.0,0.0,2
-7153.875,14694.885,-6122.835,-15237.675,0.0,0.0,0.0,0.0,2
-7166.745,14687.775,-6125.895,-15245.73,0.0,0.0,0.0,0.0,2
-7136.28,14710.41,-6102.18,-15222.555,0.0,0.0,0.0,0.0,2
-7108.47,14729.13,-6085.305,-15204.87,0.0,0.0,0.0,0.0,2
-7112.655,14731.92,-6078.42,-15192.765,0.0,0.0,0.0,0.0,2
-7141.545,14708.97,-6105.375,-15218.55,0.0,0.0,0.0,0.0,2
-7182.225,14667.795,-6144.57,-15256.98,0.0,0.0,0.0,0.0,2
-7146.72,14700.96,-6110.55,-15223.815,0.0,0.0,0.0,0.0,2
-7081.65,14760.585,-6054.66,-15171.885,0.0,0.0,0.0,0.0,2
-7081.38,14765.31,-6049.215,-15160.545,0.0,0.0,0.0,0.0,2
-7141.365,14710.095,-6091.47,-15193.17,0.0,0.0,0.0,0.0,2
-7182.045,14663.385,-6151.86,-15270.57,0.0,0.0,0.0,0.0,2
-7117.245,14727.96,-6089.13,-15218.865,0.0,0.0,0.0,0.0,2
-7105.77,14739.84,-6072.345,-15188.175,0.0,0.0,0.0,0.0,2
-7148.52,14696.46,-6115.23,-15228.0,0.0,0.0,0.0,0.0,2
-7153.515,14691.555,-6121.845,-15236.91,0.0,0.0,0.0,0.0,2
-7137.9,14710.41,-6101.955,-15220.26,0.0,0.0,0.0,0.0,2
-7139.385,14708.655,-6105.555,-15226.695,0.0,0.0,0.0,0.0,2
-7149.555,14698.665,-6115.32,-15234.84,0.0,0.0,0.0,0.0,2
-7139.07,14705.865,-6105.645,-15224.715,0.0,0.0,0.0,0.0,2
-7138.395,14705.73,-6101.19,-15214.635,0.0,0.0,0.0,0.0,2
-7149.87,14690.97,-6136.515,-15235.155,0.0,0.0,0.0,0.0,2
-7159.59,14686.2,-6178.095,-15259.77,0.0,0.0,0.0,0.0,2
-7159.545,14694.21,-6141.33,-15238.665,0.0,0.0,0.0,0.0,2
-7146.315,14702.085,-6078.555,-15214.5,0.0,0.0,0.0,0.0,2
-7144.29,14703.255,-6071.895,-15209.505,0.0,0.0,0.0,0.0,2
-7148.07,14696.595,-6112.035,-15229.17,0.0,0.0,0.0,0.0,2
-7147.89,14700.51,-6096.195,-15219.765,0.0,0.0,0.0,0.0,2
-7144.155,14703.705,-6100.515,-15212.655,0.0,0.0,0.0,0.0,2
-7142.175,14711.13,-6096.69,-15193.17,0.0,0.0,0.0,0.0,2
-7146.27,14708.475,-6101.28,-15204.87,0.0,0.0,0.0,0.0,2
-7150.77,14698.485,-6113.205,-15233.355,0.0,0.0,0.0,0.0,2
-7144.83,14702.31,-6105.24,-15222.465,0.0,0.0,0.0,0.0,2
-7144.515,14703.21,-6102.81,-15224.175,0.0,0.0,0.0,0.0,2
-7146.45,14704.605,-6095.34,-15223.41,0.0,0.0,0.0,0.0,2
-7141.545,14701.365,-6110.91,-15229.395,0.0,0.0,0.0,0.0,2
-7146.765,14694.345,-6122.43,-15234.435,0.0,0.0,0.0,0.0,2
-7150.185,14696.505,-6110.28,-15221.52,0.0,0.0,0.0,0.0,2
-7147.845,14702.22,-6101.955,-15209.415,0.0,0.0,0.0,0.0,2
-7142.175,14703.885,-6101.505,-15211.89,0.0,0.0,0.0,0.0,2
-7134.795,14713.155,-6097.5,-15214.23,0.0,0.0,0.0,0.0,2
-7142.355,14713.425,-6093.675,-15211.485,0.0,0.0,0.0,0.0,2
-7153.245,14701.635,-6100.605,-15221.97,0.0,0.0,0.0,0.0,2
-7160.58,14688.945,-6114.87,-15236.19,0.0,0.0,0.0,0.0,2
-7150.635,14697.945,-6111.315,-15228.945,0.0,0.0,0.0,0.0,2
-7147.8,14706.27,-6102.495,-15218.865,0.0,0.0,0.0,0.0,2
-7149.42,14710.41,-6098.445,-15213.24,0.0,0.0,0.0,0.0,2
-7166.7,14695.245,-6110.82,-15225.795,0.0,0.0,0.0,0.0,2
-7161.12,14700.375,-6100.245,-15215.805,0.0,0.0,0.0,0.0,2
-7120.845,14725.26,-6083.28,-15200.865,0.0,0.0,0.0,0.0,2
-7130.295,14714.235,-6098.625,-15222.15,0.0,0.0,0.0,0.0,2
-7150.86,14705.28,-6104.7,-15230.565,0.0,0.0,0.0,0.0,2
-7157.925,14696.73,-6111.945,-15236.73,0.0,0.0,0.0,0.0,2
-7149.42,14700.465,-6115.5,-15236.73,0.0,0.0,0.0,0.0,2
-7148.7,14705.46,-6109.2,-15224.265,0.0,0.0,0.0,0.0,2
-7160.985,14691.06,-6135.345,-15232.86,0.0,0.0,0.0,0.0,2
-7157.025,14691.87,-6133.5,-15226.065,0.0,0.0,0.0,0.0,2
-7127.955,14723.055,-6083.415,-15219.135,0.0,0.0,0.0,0.0,2
-7128.405,14725.755,-6064.155,-15211.89,0.0,0.0,0.0,0.0,2
-7135.065,14721.345,-6085.305,-15216.84,0.0,0.0,0.0,0.0,2
-7155.27,14697.045,-6119.73,-15242.4,0.0,0.0,0.0,0.0,2
-7144.29,14709.96,-6085.44,-15214.275,0.0,0.0,0.0,0.0,2
-7129.98,14727.33,-6062.31,-15192.315,0.0,0.0,0.0,0.0,2
-7148.16,14712.435,-6078.735,-15204.33,0.0,0.0,0.0,0.0,2
-7166.25,14694.435,-6083.64,-15193.44,0.0,0.0,0.0,0.0,2
-7149.015,14709.51,-6086.07,-15184.44,0.0,0.0,0.0,0.0,2
-7139.385,14716.395,-6100.245,-15239.25,0.0,0.0,0.0,0.0,2
-7158.465,14698.845,-6108.345,-15246.315,0.0,0.0,0.0,0.0,2
-7149.87,14701.5,-6103.125,-15232.59,0.0,0.0,0.0,0.0,2
-7139.52,14715.54,-6084.54,-15212.52,0.0,0.0,0.0,0.0,2
-7130.475,14726.655,-6069.825,-15198.39,0.0,0.0,0.0,0.0,2
-7135.425,14718.87,-6082.515,-15205.995,0.0,0.0,0.0,0.0,2
-7147.35,14704.47,-6105.105,-15226.29,0.0,0.0,0.0,0.0,2
-7137.54,14725.215,-6089.58,-15212.115,0.0,0.0,0.0,0.0,2
-7127.775,14738.895,-6074.775,-15201.18,0.0,0.0,0.0,0.0,2
-7123.05,14743.8,-6065.505,-15195.51,0.0,0.0,0.0,0.0,2
-7095.015,14774.76,-6033.285,-15164.325,0.0,0.0,0.0,0.0,2
-7102.26,14762.25,-6046.02,-15173.01,0.0,0.0,0.0,0.0,2
-7133.265,14729.445,-6076.395,-15200.865,0.0,0.0,0.0,0.0,2
-7178.445,14684.985,-6117.345,-15240.6,0.0,0.0,0.0,0.0,2
-7201.485,14656.41,-6142.77,-15269.625,0.0,0.0,0.0,0.0,2
-7170.57,14687.055,-6094.08,-15236.415,0.0,0.0,0.0,0.0,2
-7159.005,14695.83,-6101.82,-15226.965,0.0,0.0,0.0,0.0,2
-7151.355,14699.16,-6147.54,-15235.11,0.0,0.0,0.0,0.0,2
-7149.78,14710.185,-6105.24,-15223.005,0.0,0.0,0.0,0.0,2
-7151.535,14708.295,-6102.045,-15236.28,0.0,0.0,0.0,0.0,2
-7154.37,14703.975,-6098.805,-15225.39,0.0,0.0,0.0,0.0,2
-7153.425,14705.595,-6087.195,-15227.415,0.0,0.0,0.0,0.0,2
-7155.63,14706.585,-6086.745,-15215.355,0.0,0.0,0.0,0.0,2
-7147.44,14723.775,-6070.185,-15197.94,0.0,0.0,0.0,0.0,2
-7146.09,14734.665,-6051.915,-15184.44,0.0,0.0,0.0,0.0,2
-7147.125,14721.66,-6066.18,-15206.085,0.0,0.0,0.0,0.0,2
-7161.255,14692.905,-6134.85,-15258.195,0.0,0.0,0.0,0.0,2
-7167.465,14693.85,-6120.585,-15246.81,0.0,0.0,0.0,0.0,2
-7186.095,14687.46,-6100.38,-15232.23,0.0,0.0,0.0,0.0,2
-7175.835,14693.985,-6095.025,-15216.57,0.0,0.0,0.0,0.0,2
-7151.76,14704.245,-6084.54,-15212.88,0.0,0.0,0.0,0.0,2
-7157.25,14704.02,-6092.1,-15225.3,0.0,0.0,0.0,0.0,2
-7152.39,14710.545,-6093.585,-15220.89,0.0,0.0,0.0,0.0,2
-7144.155,14714.595,-6094.62,-15220.755,0.0,0.0,0.0,0.0,2
-7141.275,14725.305,-6054.525,-15178.32,0.0,0.0,0.0,0.0,2
-7134.75,14731.785,-6071.94,-15198.705,0.0,0.0,0.0,0.0,2
-7133.85,14734.305,-6081.795,-15222.69,0.0,0.0,0.0,0.0,2
-7132.455,14738.4,-6065.955,-15198.3,0.0,0.0,0.0,0.0,2
-7127.055,14745.69,-6057.0,-15185.79,0.0,0.0,0.0,0.0,2
-7139.205,14729.175,-6077.835,-15202.125,0.0,0.0,0.0,0.0,2
-7155.315,14704.38,-6102.945,-15227.595,0.0,0.0,0.0,0.0,2
-7150.455,14717.79,-6081.705,-15204.33,0.0,0.0,0.0,0.0,2
-7147.305,14723.685,-6086.295,-15209.28,0.0,0.0,0.0,0.0,2
-7128.765,14741.82,-6066.18,-15205.905,0.0,0.0,0.0,0.0,2
-7110.945,14768.01,-6030.945,-15167.97,0.0,0.0,0.0,0.0,2
-7133.49,14742.09,-6067.08,-15190.29,0.0,0.0,0.0,0.0,2
-7153.965,14712.885,-6105.87,-15220.665,0.0,0.0,0.0,0.0,2
-7168.365,14699.745,-6102.27,-15232.185,0.0,0.0,0.0,0.0,2
-7138.845,14734.755,-6057.18,-15192.315,0.0,0.0,0.0,0.0,2
-7107.885,14764.095,-6032.745,-15161.94,0.0,0.0,0.0,0.0,2
-7137.63,14725.395,-6073.38,-15204.015,0.0,0.0,0.0,0.0,2
-7177.68,14678.235,-6124.32,-15256.215,0.0,0.0,0.0,0.0,2
-7169.13,14693.085,-6118.38,-15246.225,0.0,0.0,0.0,0.0,2
-7164.09,14713.785,-6106.455,-15230.205,0.0,0.0,0.0,0.0,2
-7175.565,14699.43,-6106.23,-15232.185,0.0,0.0,0.0,0.0,2
-7166.34,14702.985,-6097.05,-15223.995,0.0,0.0,0.0,0.0,2
-7158.06,14711.085,-6060.24,-15193.755,0.0,0.0,0.0,0.0,2
-7158.87,14712.975,-6061.95,-15202.665,0.0,0.0,0.0,0.0,2
-7157.7,14708.52,-6099.705,-15223.905,0.0,0.0,0.0,0.0,2
-7171.965,14701.95,-6088.14,-15227.73,0.0,0.0,0.0,0.0,2
-7195.5,14684.22,-6109.245,-15242.355,0.0,0.0,0.0,0.0,2
-7170.615,14708.655,-6099.165,-15224.805,0.0,0.0,0.0,0.0,2
-7118.775,14749.605,-6055.92,-15188.58,0.0,0.0,0.0,0.0,2
-7128.27,14735.025,-6067.62,-15196.455,0.0,0.0,0.0,0.0,2
-7146.585,14715.855,-6086.115,-15210.72,0.0,0.0,0.0,0.0,2
-7151.67,14711.58,-6089.895,-15214.77,0.0,0.0,0.0,0.0,2
-7145.955,14722.335,-6079.275,-15206.49,0.0,0.0,0.0,0.0,2
-7134.795,14734.35,-6067.485,-15199.74,0.0,0.0,0.0,0.0,2
-7135.47,14736.51,-6058.08,-15190.515,0.0,0.0,0.0,0.0,2
-7144.83,14722.47,-6072.57,-15203.61,0.0,0.0,0.0,0.0,2
-7155.27,14711.58,-6090.165,-15217.2,0.0,0.0,0.0,0.0,2
-7157.205,14721.975,-6070.725,-15191.055,0.0,0.0,0.0,0.0,2
-7155.135,14720.31,-6079.455,-15207.93,0.0,0.0,0.0,0.0,2
-7144.245,14722.515,-6081.255,-15198.885,0.0,0.0,0.0,0.0,2
-7140.24,14730.615,-6069.69,-15171.345,0.0,0.0,0.0,0.0,2
-7121.16,14753.34,-6044.76,-15171.975,0.0,0.0,0.0,0.0,2
-7120.26,14757.435,-6037.65,-15186.69,0.0,0.0,0.0,0.0,2
-7140.24,14734.62,-6066.585,-15207.12,0.0,0.0,0.0,0.0,2
-7168.455,14707.35,-6093.675,-15228.54,0.0,0.0,0.0,0.0,2
-7188.57,14687.955,-6111.54,-15243.57,0.0,0.0,0.0,0.0,2
-7178.895,14691.24,-6107.805,-15236.685,0.0,0.0,0.0,0.0,2
-7151.355,14715.0,-6085.035,-15214.23,0.0,0.0,0.0,0.0,2
-7169.22,14703.57,-6094.17,-15221.43,0.0,0.0,0.0,0.0,2
-7179.12,14705.91,-6092.415,-15217.785,0.0,0.0,0.0,0.0,2
-7132.32,14756.49,-6053.22,-15173.235,0.0,0.0,0.0,0.0,2
-7106.49,14777.055,-6030.225,-15159.825,0.0,0.0,0.0,0.0,2
-7128.9,14745.42,-6051.645,-15197.265,0.0,0.0,0.0,0.0,2
-7144.155,14725.485,-6075.495,-15211.485,0.0,0.0,0.0,0.0,2
-7153.695,14717.61,-6086.07,-15214.77,0.0,0.0,0.0,0.0,2
-7157.7,14715.99,-6077.61,-15205.095,0.0,0.0,0.0,0.0,2
-7160.04,14717.205,-6066.18,-15200.775,0.0,0.0,0.0,0.0,2
-7157.205,14722.965,-6084.54,-15210.81,0.0,0.0,0.0,0.0,2
-7148.88,14740.56,-6098.895,-15230.07,0.0,0.0,0.0,0.0,2
-7114.77,14778.18,-6043.14,-15179.04,0.0,0.0,0.0,0.0,2
-7106.85,14766.615,-6043.77,-15187.185,0.0,0.0,0.0,0.0,2
-7143.975,14727.33,-6077.205,-15212.79,0.0,0.0,0.0,0.0,2
-7136.055,14744.655,-6052.725,-15189.75,0.0,0.0,0.0,0.0,2
-7171.155,14710.185,-6078.15,-15213.24,0.0,0.0,0.0,0.0,2
-7179.795,14701.23,-6095.115,-15227.64,0.0,0.0,0.0,0.0,2
-7164.315,14719.185,-6086.655,-15214.545,0.0,0.0,0.0,0.0,2
-7174.665,14703.84,-6101.19,-15236.955,0.0,0.0,0.0,0.0,2
-7174.665,14701.23,-6102.855,-15240.465,0.0,0.0,0.0,0.0,2
-7150.365,14727.915,-6078.195,-15210.63,0.0,0.0,0.0,0.0,2
-7141.14,14739.21,-6065.73,-15188.49,0.0,0.0,0.0,0.0,2
-7147.845,14734.08,-6060.51,-15192.45,0.0,0.0,0.0,0.0,2
-7155.495,14728.86,-6065.91,-15214.68,0.0,0.0,0.0,0.0,2
-7148.385,14732.235,-6078.06,-15215.445,0.0,0.0,0.0,0.0,2
-7145.865,14737.41,-6072.705,-15209.37,0.0,0.0,0.0,0.0,2
-7151.76,14735.52,-6068.34,-15206.715,0.0,0.0,0.0,0.0,2
-7152.12,14732.37,-6066.945,-15206.895,0.0,0.0,0.0,0.0,2
