CH1,CH2,CH3,CH4,CH5,CH6,CH7,CH8,Target
25626.285,30865.455,2877.435,-7868.655,0.0,0.0,0.0,0.0,7
23560.245,33447.78,566.865,-9970.785,0.0,0.0,0.0,0.0,7
20722.185,38040.66,-2589.615,-12875.445,0.0,0.0,0.0,0.0,7
18805.32,41797.619999999995,-4779.72,-14908.32,0.0,0.0,0.0,0.0,7
18672.345,42969.06,-4925.429999999999,-15069.825,0.0,0.0,0.0,0.0,7
20662.335,40618.125,-2761.785,-13097.7,0.0,0.0,0.0,0.0,7
23564.295,36058.275,427.68,-10160.595,0.0,0.0,0.0,0.0,7
25889.129999999997,31716.81,3031.56,-7741.62,0.0,0.0,0.0,0.0,7
26180.37,30110.22,3425.4449999999997,-7355.925,0.0,0.0,0.0,0.0,7
24644.655,31724.46,1704.06,-8912.475,0.0,0.0,0.0,0.0,7
21825.81,36082.485,-1429.11,-11791.62,0.0,0.0,0.0,0.0,7
19463.715,40469.445,-4121.19,-14288.985,0.0,0.0,0.0,0.0,7
18753.66,42515.01,-4919.8949999999995,-15047.28,0.0,0.0,0.0,0.0,7
20088.495,41313.51,-3421.17,-13675.995,0.0,0.0,0.0,0.0,7
22872.96,37248.48,-385.83,-10892.295,0.0,0.0,0.0,0.0,7
25582.725,32506.56,2582.325,-8142.165,0.0,0.0,0.0,0.0,7
26495.01,29947.59,3690.36,-7110.179999999999,0.0,0.0,0.0,0.0,7
25533.27,30545.685,2622.645,-8075.07,0.0,0.0,0.0,0.0,7
22909.275,34320.06,-264.555,-10711.305,0.0,0.0,0.0,0.0,7
20181.645,39080.655,-3299.04,-13512.195,0.0,0.0,0.0,0.0,7
18914.4,42005.61,-4738.95,-14864.265,0.0,0.0,0.0,0.0,7
19627.785,41909.76,-3962.52,-14173.155,0.0,0.0,0.0,0.0,7
22111.29,38571.255,-1253.565,-11684.43,0.0,0.0,0.0,0.0,7
24981.525,33805.575,1849.86,-8826.705,0.0,0.0,0.0,0.0,7
26547.705,30362.085,3656.34,-7149.195,0.0,0.0,0.0,0.0,7
26113.455,29993.85,3229.605,-7516.44,0.0,0.0,0.0,0.0,7
23884.379999999997,32940.27,770.175,-9760.545,0.0,0.0,0.0,0.0,7
20974.905,37770.885,-2445.39,-12723.345,0.0,0.0,0.0,0.0,7
19144.26,41528.385,-4551.57,-14673.51,0.0,0.0,0.0,0.0,7
19210.14,42436.845,-4502.115,-14657.805,0.0,0.0,0.0,0.0,7
21286.035,39991.68,-2246.355,-12616.74,0.0,0.0,0.0,0.0,7
24143.445,35473.814999999995,918.36,-9700.425,0.0,0.0,0.0,0.0,7
26295.254999999997,31302.675,3359.385,-7423.02,0.0,0.0,0.0,0.0,7
26415.18,30001.185,3560.67,-7212.285,0.0,0.0,0.0,0.0,7
24735.735,31932.18,1670.985,-8928.404999999999,0.0,0.0,0.0,0.0,7
21869.46,36464.31,-1498.725,-11845.305,0.0,0.0,0.0,0.0,7
19546.245,40827.645,-4114.53,-14268.15,0.0,0.0,0.0,0.0,7
18981.855,42698.835,-4761.224999999999,-14892.975,0.0,0.0,0.0,0.0,7
20472.3,41310.63,-3130.6949999999997,-13414.545,0.0,0.0,0.0,0.0,7
23231.7,37236.915,-94.275,-10626.03,0.0,0.0,0.0,0.0,7
25832.43,32602.23,2779.9649999999997,-7965.315,0.0,0.0,0.0,0.0,7
26572.23,30358.035,3679.065,-7114.59,0.0,0.0,0.0,0.0,7
25458.075,31248.945,2435.4,-8231.67,0.0,0.0,0.0,0.0,7
22776.165,35236.979999999996,-538.605,-10957.815,0.0,0.0,0.0,0.0,7
20102.895,39969.54,-3521.6549999999997,-13712.04,0.0,0.0,0.0,0.0,7
18941.67,42731.595,-4832.73,-14947.605,0.0,0.0,0.0,0.0,7
19777.32,42436.485,-3920.31,-14132.52,0.0,0.0,0.0,0.0,7
22307.31,39001.365,-1144.44,-11588.04,0.0,0.0,0.0,0.0,7
25114.77,34291.665,1940.715,-8739.18,0.0,0.0,0.0,0.0,7
26512.83,31115.07,3562.3799999999997,-7228.304999999999,0.0,0.0,0.0,0.0,7
25950.42,31010.129999999997,2957.13,-7759.485,0.0,0.0,0.0,0.0,7
23610.42,34207.2,359.145,-10130.355,0.0,0.0,0.0,0.0,7
20774.16,38999.925,-2795.7149999999997,-13041.27,0.0,0.0,0.0,0.0,7
19056.105,42548.445,-4747.32,-14860.845,0.0,0.0,0.0,0.0,7
19214.955,43318.53,-4558.32,-14716.395,0.0,0.0,0.0,0.0,7
21393.855,40676.445,-2171.43,-12536.73,0.0,0.0,0.0,0.0,7
24248.52,36128.61,960.795,-9651.24,0.0,0.0,0.0,0.0,7
26228.52,32177.07,3201.2549999999997,-7569.719999999999,0.0,0.0,0.0,0.0,7
26227.62,31132.754999999997,3243.33,-7508.88,0.0,0.0,0.0,0.0,7
24409.575,33333.435,1202.895,-9363.555,0.0,0.0,0.0,0.0,7
21608.28,37860.885,-1896.66,-12214.575,0.0,0.0,0.0,0.0,7
19482.21,41930.325,-4298.264999999999,-14443.56,0.0,0.0,0.0,0.0,7
19035.675,43600.86,-4794.03,-14931.72,0.0,0.0,0.0,0.0,7
20598.48,42057.045,-3083.76,-13379.445,0.0,0.0,0.0,0.0,7
23263.335,38035.665,-144.765,-10676.79,0.0,0.0,0.0,0.0,7
25625.295,33671.744999999995,2502.45,-8230.275,0.0,0.0,0.0,0.0,7
26265.33,31663.485,3267.495,-7504.38,0.0,0.0,0.0,0.0,7
25067.7,32764.905,1913.58,-8724.015,0.0,0.0,0.0,0.0,7
22456.305,36735.885,-992.205,-11387.205,0.0,0.0,0.0,0.0,7
19979.91,41162.805,-3776.67,-13957.83,0.0,0.0,0.0,0.0,7
18968.805,43648.875,-4916.115,-15034.095,0.0,0.0,0.0,0.0,7
19910.16,43159.5,-3883.23,-14113.665,0.0,0.0,0.0,0.0,7
22466.7,39597.705,-1072.62,-11536.515,0.0,0.0,0.0,0.0,7
25079.4,35060.94,1828.62,-8856.135,0.0,0.0,0.0,0.0,7
26265.645,32187.33,3219.5699999999997,-7557.03,0.0,0.0,0.0,0.0,7
25601.58,32299.695,2493.27,-8197.965,0.0,0.0,0.0,0.0,7
23319.405,35526.735,-69.975,-10534.32,0.0,0.0,0.0,0.0,7
20653.695,40079.655,-3050.01,-13282.38,0.0,0.0,0.0,0.0,7
19146.6,43290.18,-4768.514999999999,-14888.25,0.0,0.0,0.0,0.0,7
19423.08,43818.57,-4436.82,-14607.675,0.0,0.0,0.0,0.0,7
21659.67,40983.435,-1978.515,-12359.79,0.0,0.0,0.0,0.0,7
24367.455,36544.365,991.035,-9624.555,0.0,0.0,0.0,0.0,7
26114.76,32909.13,2986.1549999999997,-7769.88,0.0,0.0,0.0,0.0,7
25993.98,32131.08,2877.075,-7846.065,0.0,0.0,0.0,0.0,7
24189.12,34438.229999999996,816.93,-9719.325,0.0,0.0,0.0,0.0,7
21470.895,38866.86,-2199.96,-12497.445,0.0,0.0,0.0,0.0,7
19509.12,42656.22,-4427.28,-14561.865,0.0,0.0,0.0,0.0,7
19154.61,44093.07,-4772.88,-14902.245,0.0,0.0,0.0,0.0,7
20925.27,42210.765,-2856.4649999999997,-13158.18,0.0,0.0,0.0,0.0,7
23617.17,38033.46,132.795,-10405.215,0.0,0.0,0.0,0.0,7
25848.405,33827.174999999996,2648.115,-8075.745,0.0,0.0,0.0,0.0,7
26244.81,32158.485,3148.38,-7591.995,0.0,0.0,0.0,0.0,7
24945.345,33457.365,1668.285,-8925.39,0.0,0.0,0.0,0.0,7
22332.42,37502.73,-1262.97,-11618.055,0.0,0.0,0.0,0.0,7
19979.37,41767.785,-3919.23,-14066.145,0.0,0.0,0.0,0.0,7
19124.865,44022.195,-4872.285,-14969.61,0.0,0.0,0.0,0.0,7
20278.08,43159.545,-3603.96,-13829.265,0.0,0.0,0.0,0.0,7
22858.155,39439.71,-758.3399999999999,-11215.53,0.0,0.0,0.0,0.0,7
25424.865,34938.045,2091.105,-8580.735,0.0,0.0,0.0,0.0,7
26394.48,32378.039999999997,3254.895,-7486.92,0.0,0.0,0.0,0.0,7
25621.02,32721.345,2390.13,-8254.26,0.0,0.0,0.0,0.0,7
23245.11,36128.655,-258.65999999999997,-10674.99,0.0,0.0,0.0,0.0,7
20635.065,40643.82,-3197.7,-13391.55,0.0,0.0,0.0,0.0,7
19270.62,43644.869999999995,-4769.1449999999995,-14859.945,0.0,0.0,0.0,0.0,7
19785.195,43830.045,-4180.635,-14345.01,0.0,0.0,0.0,0.0,7
22098.96,40774.41,-1622.07,-11998.98,0.0,0.0,0.0,0.0,7
24787.485,36295.244999999995,1355.94,-9253.08,0.0,0.0,0.0,0.0,7
26374.545,32871.645,3166.1099999999997,-7571.295,0.0,0.0,0.0,0.0,7
26111.879999999997,32296.77,2880.0,-7808.219999999999,0.0,0.0,0.0,0.0,7
24142.815,34867.034999999996,661.635,-9823.365,0.0,0.0,0.0,0.0,7
21427.74,39353.13,-2358.765,-12600.855,0.0,0.0,0.0,0.0,7
19581.345,43003.08,-4459.724999999999,-14551.515,0.0,0.0,0.0,0.0,7
19476.585,44132.085,-4571.775,-14683.275,0.0,0.0,0.0,0.0,7
21366.0,41961.96,-2499.39,-12792.42,0.0,0.0,0.0,0.0,7
24088.32,37676.07,508.77,-10025.01,0.0,0.0,0.0,0.0,7
26194.185,33613.92,2889.225,-7819.02,0.0,0.0,0.0,0.0,7
26440.245,32180.985,3228.885,-7485.255,0.0,0.0,0.0,0.0,7
24974.595,33778.305,1567.08,-8989.425,0.0,0.0,0.0,0.0,7
22308.03,37959.21,-1406.88,-11717.685,0.0,0.0,0.0,0.0,7
20041.56,42122.88,-3971.52,-14088.285,0.0,0.0,0.0,0.0,7
19366.29,44110.215,-4728.69,-14814.315,0.0,0.0,0.0,0.0,7
20680.785,42961.86,-3285.0899999999997,-13509.765,0.0,0.0,0.0,0.0,7
23317.11,39083.625,-380.205,-10844.37,0.0,0.0,0.0,0.0,7
25807.365,34643.835,2396.295,-8278.65,0.0,0.0,0.0,0.0,7
26625.06,32306.625,3389.085,-7342.02,0.0,0.0,0.0,0.0,7
25703.055,32918.76,2331.585,-8292.869999999999,0.0,0.0,0.0,0.0,7
23219.145,36562.275,-430.29,-10815.03,0.0,0.0,0.0,0.0,7
20642.31,41070.195,-3305.43,-13463.775,0.0,0.0,0.0,0.0,7
19433.655,43859.925,-4692.69,-14768.01,0.0,0.0,0.0,0.0,7
20107.305,43780.77,-3942.225,-14100.345,0.0,0.0,0.0,0.0,7
22527.495,40519.71,-1287.0,-11671.965,0.0,0.0,0.0,0.0,7
25197.66,35994.51,1673.46,-8944.83,0.0,0.0,0.0,0.0,7
26632.125,32763.645,3350.205,-7384.23,0.0,0.0,0.0,0.0,7
26204.985,32461.289999999997,2887.92,-7786.395,0.0,0.0,0.0,0.0,7
24084.629999999997,35304.435,515.295,-9944.415,0.0,0.0,0.0,0.0,7
21369.51,39873.51,-2524.68,-12742.29,0.0,0.0,0.0,0.0,7
19673.64,43370.82,-4473.045,-14557.23,0.0,0.0,0.0,0.0,7
19697.985,44278.83,-4421.43,-14538.78,0.0,0.0,0.0,0.0,7
21724.785,41850.9,-2198.97,-12507.975,0.0,0.0,0.0,0.0,7
24456.015,37490.76,826.3349999999999,-9724.545,0.0,0.0,0.0,0.0,7
26473.68,33525.405,3104.865,-7612.695,0.0,0.0,0.0,0.0,7
26545.41,32327.414999999997,3247.6949999999997,-7457.355,0.0,0.0,0.0,0.0,7
24940.08,34232.58,1404.0449999999998,-9135.99,0.0,0.0,0.0,0.0,7
22190.58,38601.045,-1634.355,-11922.12,0.0,0.0,0.0,0.0,7
20034.72,42668.235,-4073.85,-14175.9,0.0,0.0,0.0,0.0,7
19479.645,44468.415,-4684.7699999999995,-14765.49,0.0,0.0,0.0,0.0,7
20957.985,43039.935,-3055.635,-13288.32,0.0,0.0,0.0,0.0,7
23648.31,39015.18,-102.15,-10578.24,0.0,0.0,0.0,0.0,7
26077.455,34601.58,2611.17,-8065.08,0.0,0.0,0.0,0.0,7
26691.435,32548.905,3382.92,-7334.054999999999,0.0,0.0,0.0,0.0,7
25582.815,33469.02,2134.125,-8457.705,0.0,0.0,0.0,0.0,7
23019.75,37291.095,-719.775,-11070.855,0.0,0.0,0.0,0.0,7
20551.41,41700.51,-3503.25,-13641.075,0.0,0.0,0.0,0.0,7
19471.41,44305.92,-4726.8,-14791.455,0.0,0.0,0.0,0.0,7
20320.38,43948.53,-3788.82,-13953.285,0.0,0.0,0.0,0.0,7
22821.435,40471.56,-1038.42,-11432.565,0.0,0.0,0.0,0.0,7
25467.435,35944.83,1897.155,-8723.25,0.0,0.0,0.0,0.0,7
26720.28,32978.565,3374.37,-7343.639999999999,0.0,0.0,0.0,0.0,7
26139.825,32930.1,2726.505,-7917.12,0.0,0.0,0.0,0.0,7
23895.675,36031.59,214.065,-10208.88,0.0,0.0,0.0,0.0,7
21230.325,40568.715,-2763.63,-12950.595,0.0,0.0,0.0,0.0,7
19650.465,43874.235,-4570.2,-14631.39,0.0,0.0,0.0,0.0,7
19846.08,44532.855,-4341.0599999999995,-14449.5,0.0,0.0,0.0,0.0,7
22003.11,41839.02,-1978.515,-12290.985,0.0,0.0,0.0,0.0,7
24746.805,37387.71,1048.635,-9501.165,0.0,0.0,0.0,0.0,7
26573.535,33649.965,3143.0699999999997,-7556.804999999999,0.0,0.0,0.0,0.0,7
26497.035,32733.81,3108.33,-7565.985,0.0,0.0,0.0,0.0,7
24736.23,34899.255,1120.185,-9370.26,0.0,0.0,0.0,0.0,7
22032.495,39299.805,-1892.745,-12139.83,0.0,0.0,0.0,0.0,7
19985.76,43211.52,-4216.635,-14291.37,0.0,0.0,0.0,0.0,7
19567.935,44805.285,-4671.8099999999995,-14738.355,0.0,0.0,0.0,0.0,7
21201.12,43092.494999999995,-2881.89,-13112.595,0.0,0.0,0.0,0.0,7
23909.895,38944.619999999995,104.67,-10367.91,0.0,0.0,0.0,0.0,7
26213.805,34678.845,2686.635,-7978.049999999999,0.0,0.0,0.0,0.0,7
26709.705,32851.53,3315.7349999999997,-7376.895,0.0,0.0,0.0,0.0,7
25470.405,34021.034999999996,1913.85,-8640.09,0.0,0.0,0.0,0.0,7
22855.725,38002.14,-998.415,-11309.22,0.0,0.0,0.0,0.0,7
20422.215,42340.32,-3736.08,-13838.67,0.0,0.0,0.0,0.0,7
19464.93,44730.27,-4814.46,-14857.83,0.0,0.0,0.0,0.0,7
20503.8,44096.67,-3674.88,-13831.92,0.0,0.0,0.0,0.0,7
23087.295,40443.705,-834.5699999999999,-11226.69,0.0,0.0,0.0,0.0,7
25677.27,35929.799999999996,2043.27,-8571.555,0.0,0.0,0.0,0.0,7
26746.515,33193.575,3321.6299999999997,-7378.469999999999,0.0,0.0,0.0,0.0,7
26039.07,33384.465,2527.335,-8081.639999999999,0.0,0.0,0.0,0.0,7
23713.92,36681.03,-81.315,-10461.6,0.0,0.0,0.0,0.0,7
21072.645,41214.06,-3034.755,-13184.145,0.0,0.0,0.0,0.0,7
19593.54,44372.52,-4711.41,-14745.375,0.0,0.0,0.0,0.0,7
19942.02,44818.92,-4306.635,-14404.365,0.0,0.0,0.0,0.0,7
22229.775,41888.16,-1809.27,-12121.2,0.0,0.0,0.0,0.0,7
24955.11,37403.595,1200.375,-9348.21,0.0,0.0,0.0,0.0,7
26641.125,33848.82,3144.87,-7541.054999999999,0.0,0.0,0.0,0.0,7
26432.01,33145.244999999995,2952.0899999999997,-7696.62,0.0,0.0,0.0,0.0,7
24530.895,35555.939999999995,812.295,-9642.69,0.0,0.0,0.0,0.0,7
21803.085,40033.755,-2224.08,-12435.12,0.0,0.0,0.0,0.0,7
19869.075,43804.53,-4427.6849999999995,-14478.21,0.0,0.0,0.0,0.0,7
19613.88,45164.16,-4701.735,-14759.595,0.0,0.0,0.0,0.0,7
21444.345,43169.13,-2703.33,-12937.77,0.0,0.0,0.0,0.0,7
24181.875,38923.244999999995,318.735,-10162.755,0.0,0.0,0.0,0.0,7
26365.095,34760.025,2781.72,-7884.764999999999,0.0,0.0,0.0,0.0,7
26680.815,33172.92,3207.555,-7473.06,0.0,0.0,0.0,0.0,7
25282.71,34605.36,1631.025,-8892.539999999999,0.0,0.0,0.0,0.0,7
22620.285,38745.27,-1334.97,-11610.765,0.0,0.0,0.0,0.0,7
20320.785,42991.02,-3939.93,-14018.265,0.0,0.0,0.0,0.0,7
19519.56,45177.255,-4846.5,-14877.18,0.0,0.0,0.0,0.0,7
20683.755,44230.32,-3555.72,-13717.845,0.0,0.0,0.0,0.0,7
23301.135,40402.53,-668.34,-11076.12,0.0,0.0,0.0,0.0,7
25842.015,35932.68,2142.135,-8476.289999999999,0.0,0.0,0.0,0.0,7
26738.055,33453.765,3225.7799999999997,-7457.264999999999,0.0,0.0,0.0,0.0,7
25896.105,33901.515,2289.33,-8289.404999999999,0.0,0.0,0.0,0.0,7
23508.855,37391.895,-389.565,-10738.395,0.0,0.0,0.0,0.0,7
20931.795,41846.805,-3269.6549999999997,-13400.145,0.0,0.0,0.0,0.0,7
19604.07,44782.875,-4772.115,-14809.77,0.0,0.0,0.0,0.0,7
20154.96,44906.67,-4160.835,-14272.11,0.0,0.0,0.0,0.0,7
22511.655,41734.08,-1578.195,-11907.045,0.0,0.0,0.0,0.0,7
25216.83,37230.615,1414.53,-9146.16,0.0,0.0,0.0,0.0,7
26742.195,33876.72,3187.08,-7496.19,0.0,0.0,0.0,0.0,7
26419.095,33387.57,2848.23,-7786.485,0.0,0.0,0.0,0.0,7
24367.995,36055.755,549.36,-9885.645,0.0,0.0,0.0,0.0,7
21619.26,40562.055,-2503.305,-12701.925,0.0,0.0,0.0,0.0,7
19809.945,44169.435,-4574.205,-14621.94,0.0,0.0,0.0,0.0,7
19735.425,45285.3,-4647.24,-14707.935,0.0,0.0,0.0,0.0,7
21695.265,43003.755,-2527.065,-12764.925,0.0,0.0,0.0,0.0,7
24474.42,38649.51,539.685,-9948.915,0.0,0.0,0.0,0.0,7
26575.785,34614.63,2946.285,-7732.799999999999,0.0,0.0,0.0,0.0,7
26717.355,33237.045,3169.035,-7506.945,0.0,0.0,0.0,0.0,7
25157.565,34923.96,1407.735,-9099.99,0.0,0.0,0.0,0.0,7
22408.785,39199.23,-1648.62,-11894.535,0.0,0.0,0.0,0.0,7
20192.985,43362.225,-4166.955,-14220.09,0.0,0.0,0.0,0.0,7
19562.58,45364.095,-4867.0199999999995,-14895.18,0.0,0.0,0.0,0.0,7
20984.94,44143.605,-3305.0699999999997,-13493.835,0.0,0.0,0.0,0.0,7
23693.175,40133.115,-338.58,-10781.145,0.0,0.0,0.0,0.0,7
26153.235,35619.57,2403.72,-8241.074999999999,0.0,0.0,0.0,0.0,7
26927.19,33247.755,3349.395,-7343.955,0.0,0.0,0.0,0.0,7
25920.0,33922.17,2231.145,-8344.35,0.0,0.0,0.0,0.0,7
23356.305,37695.285,-635.31,-10972.665,0.0,0.0,0.0,0.0,7
20714.67,42266.43,-3603.555,-13704.255,0.0,0.0,0.0,0.0,7
19447.56,45134.73,-5015.79,-15034.275,0.0,0.0,0.0,0.0,7
20244.42,45021.195,-4135.68,-14263.515,0.0,0.0,0.0,0.0,7
22845.33,41549.31,-1288.8,-11655.09,0.0,0.0,0.0,0.0,7
25621.02,36839.43,1761.615,-8839.35,0.0,0.0,0.0,0.0,7
27061.515,33528.735,3420.765,-7288.469999999999,0.0,0.0,0.0,0.0,7
26526.825,33253.335,2859.705,-7776.945,0.0,0.0,0.0,0.0,7
24281.595,36302.85,358.2,-10063.89,0.0,0.0,0.0,0.0,7
21436.29,41050.26,-2785.365,-12955.905,0.0,0.0,0.0,0.0,7
19609.11,44694.36,-4844.88,-14867.46,0.0,0.0,0.0,0.0,7
19667.925,45632.43,-4766.67,-14826.375,0.0,0.0,0.0,0.0,7
21886.83,43011.945,-2363.4,-12629.745,0.0,0.0,0.0,0.0,7
24813.045,38407.41,853.1999999999999,-9665.415,0.0,0.0,0.0,0.0,7
26851.004999999997,34373.79,3163.635,-7525.17,0.0,0.0,0.0,0.0,7
26835.93,33190.155,3214.7999999999997,-7456.815,0.0,0.0,0.0,0.0,7
25093.485,35228.115,1251.9,-9232.38,0.0,0.0,0.0,0.0,7
22289.22,39724.244999999995,-1871.19,-12109.23,0.0,0.0,0.0,0.0,7
20106.72,43879.905,-4350.285,-14403.69,0.0,0.0,0.0,0.0,7
19532.295,45754.335,-4979.5199999999995,-15009.525,0.0,0.0,0.0,0.0,7
21056.31,44258.31,-3306.915,-13487.625,0.0,0.0,0.0,0.0,7
23820.66,40046.58,-257.03999999999996,-10683.495,0.0,0.0,0.0,0.0,7
26304.975,35547.03,2527.47,-8108.82,0.0,0.0,0.0,0.0,7
26985.555,33420.104999999996,3355.3799999999997,-7314.21,0.0,0.0,0.0,0.0,7
25830.495,34395.885,2055.375,-8477.369999999999,0.0,0.0,0.0,0.0,7
23193.045,38383.785,-876.555,-11164.095,0.0,0.0,0.0,0.0,7
20589.615,42906.42,-3784.545,-13843.215,0.0,0.0,0.0,0.0,7
19455.345,45595.17,-5058.315,-15041.07,0.0,0.0,0.0,0.0,7
20315.475,45222.3,-4104.8099999999995,-14194.53,0.0,0.0,0.0,0.0,7
22922.19,41577.255,-1245.24,-11579.58,0.0,0.0,0.0,0.0,7
25767.0,36876.33,1856.745,-8729.279999999999,0.0,0.0,0.0,0.0,7
27121.095,33782.715,3409.335,-7283.565,0.0,0.0,0.0,0.0,7
26504.82,33727.545,2759.94,-7877.655,0.0,0.0,0.0,0.0,7
24159.06,36946.26,139.545,-10266.03,0.0,0.0,0.0,0.0,7
21361.185,41619.645,-2939.76,-13084.245,0.0,0.0,0.0,0.0,7
19760.985,45065.97,-4785.929999999999,-14799.24,0.0,0.0,0.0,0.0,7
19886.31,45799.605,-4596.48,-14647.41,0.0,0.0,0.0,0.0,7
22077.72,42990.165,-2186.1,-12443.535,0.0,0.0,0.0,0.0,7
24915.645,38374.74,941.445,-9563.085,0.0,0.0,0.0,0.0,7
26933.895,34480.845,3205.035,-7453.71,0.0,0.0,0.0,0.0,7
26936.595,33407.865,3226.9049999999997,-7419.06,0.0,0.0,0.0,0.0,7
25051.68,35565.21,1121.985,-9331.515,0.0,0.0,0.0,0.0,7
22131.18,40089.78,-2080.44,-12265.155,0.0,0.0,0.0,0.0,7
19987.02,44204.759999999995,-4530.014999999999,-14540.355,0.0,0.0,0.0,0.0,7
19530.945,45968.4,-5031.45,-15044.265,0.0,0.0,0.0,0.0,7
21233.565,44233.785,-3148.65,-13332.42,0.0,0.0,0.0,0.0,7
24080.67,39874.05,-11.655,-10446.12,0.0,0.0,0.0,0.0,7
26546.265,35397.63,2730.105,-7907.94,0.0,0.0,0.0,0.0,7
27128.879999999997,33382.305,3433.9049999999997,-7234.469999999999,0.0,0.0,0.0,0.0,7
25960.32,34501.455,2082.42,-8446.32,0.0,0.0,0.0,0.0,7
23231.925,38614.814999999995,-927.27,-11205.765,0.0,0.0,0.0,0.0,7
20616.795,43190.369999999995,-3827.43,-13896.36,0.0,0.0,0.0,0.0,7
19398.645,45825.705,-5126.22,-15128.1,0.0,0.0,0.0,0.0,7
20448.63,45241.335,-3989.745,-14104.665,0.0,0.0,0.0,0.0,7
23178.105,41420.34,-1012.68,-11368.53,0.0,0.0,0.0,0.0,7
25958.61,36682.83,2067.75,-8529.705,0.0,0.0,0.0,0.0,7
27205.02,33712.604999999996,3529.62,-7172.325,0.0,0.0,0.0,0.0,7
26560.035,33753.96,2797.38,-7820.73,0.0,0.0,0.0,0.0,7
24132.96,37136.16,92.88,-10288.485,0.0,0.0,0.0,0.0,7
21293.865,41929.425,-3050.2349999999997,-13185.225,0.0,0.0,0.0,0.0,7
19611.045,45371.295,-4940.235,-14938.695,0.0,0.0,0.0,0.0,7
19895.715,45936.0,-4627.304999999999,-14667.3,0.0,0.0,0.0,0.0,7
22263.48,42909.705,-2083.455,-12314.79,0.0,0.0,0.0,0.0,7
25121.25,38215.71,1111.23,-9358.83,0.0,0.0,0.0,0.0,7
26994.914999999997,34398.225,3250.26,-7376.94,0.0,0.0,0.0,0.0,7
26928.945,33414.93,3184.92,-7406.955,0.0,0.0,0.0,0.0,7
24984.765,35807.22,976.905,-9422.685,0.0,0.0,0.0,0.0,7
22121.595,40524.075,-2192.85,-12372.525,0.0,0.0,0.0,0.0,7
19943.37,44650.8,-4628.79,-14625.27,0.0,0.0,0.0,0.0,7
19584.45,46284.119999999995,-5021.235,-14998.23,0.0,0.0,0.0,0.0,7
21384.405,44305.38,-3046.68,-13185.405,0.0,0.0,0.0,0.0,7
24253.379999999997,39809.385,126.495,-10268.73,0.0,0.0,0.0,0.0,7
26657.955,35336.295,2852.64,-7757.19,0.0,0.0,0.0,0.0,7
27272.16,33387.21,3596.085,-7054.065,0.0,0.0,0.0,0.0,7
25981.965,34696.125,2054.025,-8431.244999999999,0.0,0.0,0.0,0.0,7
23053.86,39045.78,-1220.49,-11404.035,0.0,0.0,0.0,0.0,7
20262.555,43717.95,-4271.8949999999995,-14207.67,0.0,0.0,0.0,0.0,7
19318.005,46293.705,-5319.45,-15232.77,0.0,0.0,0.0,0.0,7
20677.275,45511.29,-3925.17,-14038.605,0.0,0.0,0.0,0.0,7
23417.685,41496.57,-854.01,-11192.715,0.0,0.0,0.0,0.0,7
26077.365,36671.175,2195.685,-8339.94,0.0,0.0,0.0,0.0,7
27365.985,33736.905,3610.485,-7004.115,0.0,0.0,0.0,0.0,7
26703.585,33943.86,2840.805,-7698.599999999999,0.0,0.0,0.0,0.0,7
24048.405,37619.325,-38.745,-10359.405,0.0,0.0,0.0,0.0,7
21046.995,42593.4,-3341.6099999999997,-13425.39,0.0,0.0,0.0,0.0,7
19451.43,46057.365,-5178.78,-15144.975,0.0,0.0,0.0,0.0,7
19789.02,46535.58,-4763.97,-14784.39,0.0,0.0,0.0,0.0,7
22269.375,43209.494999999995,-2023.155,-12248.145,0.0,0.0,0.0,0.0,7
25238.385,38321.685,1190.025,-9282.555,0.0,0.0,0.0,0.0,7
27087.3,34443.18,3263.1299999999997,-7315.29,0.0,0.0,0.0,0.0,7
27048.69,33588.0,3143.52,-7374.33,0.0,0.0,0.0,0.0,7
24969.105,36340.605,799.785,-9520.965,0.0,0.0,0.0,0.0,7
21936.465,41338.125,-2481.435,-12587.175,0.0,0.0,0.0,0.0,7
19704.96,45519.48,-4872.96,-14819.445,0.0,0.0,0.0,0.0,7
19431.99,47028.06,-5190.389999999999,-15155.73,0.0,0.0,0.0,0.0,7
21458.385,44751.285,-3010.725,-13169.97,0.0,0.0,0.0,0.0,7
24437.43,40028.13,281.655,-10134.405,0.0,0.0,0.0,0.0,7
26883.99,35438.625,3009.33,-7621.065,0.0,0.0,0.0,0.0,7
27413.685,33563.655,3636.945,-7027.0199999999995,0.0,0.0,0.0,0.0,7
25845.75,35176.185,1884.285,-8615.789999999999,0.0,0.0,0.0,0.0,7
22795.74,39844.575,-1531.89,-11745.675,0.0,0.0,0.0,0.0,7
20154.285,44590.095,-4441.679999999999,-14442.39,0.0,0.0,0.0,0.0,7
19198.53,47080.035,-5472.495,-15433.695,0.0,0.0,0.0,0.0,7
20592.27,45996.525,-3964.59,-14064.48,0.0,0.0,0.0,0.0,7
23499.765,41715.09,-788.76,-11114.415,0.0,0.0,0.0,0.0,7
26293.32,36716.355,2282.85,-8262.09,0.0,0.0,0.0,0.0,7
27514.44,33842.88,3676.185,-6969.915,0.0,0.0,0.0,0.0,7
26640.27,34317.945,2672.01,-7880.04,0.0,0.0,0.0,0.0,7
23809.545,38361.735,-448.515,-10733.805,0.0,0.0,0.0,0.0,7
20782.08,43406.82,-3709.665,-13720.455,0.0,0.0,0.0,0.0,7
19256.355,46728.36,-5390.955,-15296.535,0.0,0.0,0.0,0.0,7
19912.995,46868.85,-4736.745,-14721.885,0.0,0.0,0.0,0.0,7
22544.595,43287.255,-1818.72,-12056.355,0.0,0.0,0.0,0.0,7
25512.435,38235.195,1443.915,-9051.57,0.0,0.0,0.0,0.0,7
27382.95,34431.21,3470.895,-7153.74,0.0,0.0,0.0,0.0,7
27148.004999999997,33810.705,3189.645,-7360.11,0.0,0.0,0.0,0.0,7
24746.67,36920.79,536.67,-9768.24,0.0,0.0,0.0,0.0,7
21603.78,41997.6,-2849.76,-12888.045,0.0,0.0,0.0,0.0,7
19397.745,46023.525,-5292.72,-15166.44,0.0,0.0,0.0,0.0,7
19275.66,47311.244999999995,-5474.385,-15391.89,0.0,0.0,0.0,0.0,7
21759.705,44740.71,-2793.1949999999997,-12929.4,0.0,0.0,0.0,0.0,7
24901.875,39930.255,712.665,-9695.745,0.0,0.0,0.0,0.0,7
27189.629999999997,35423.235,3171.24,-7382.115,0.0,0.0,0.0,0.0,7
27456.21,33787.125,3537.6299999999997,-7000.74,0.0,0.0,0.0,0.0,7
25628.94,35784.405,1523.205,-8821.44,0.0,0.0,0.0,0.0,7
22493.7,40590.0,-1926.54,-12004.02,0.0,0.0,0.0,0.0,7
20058.885,45101.97,-4653.495,-14532.12,0.0,0.0,0.0,0.0,7
19244.25,47327.085,-5504.8949999999995,-15324.885,0.0,0.0,0.0,0.0,7
20778.39,45932.4,-3868.02,-13820.715,0.0,0.0,0.0,0.0,7
23718.24,41598.72,-709.515,-10950.165,0.0,0.0,0.0,0.0,7
26581.41,36782.46,2307.105,-8183.474999999999,0.0,0.0,0.0,0.0,7
27474.21,34149.42,3621.195,-6899.94,0.0,0.0,0.0,0.0,7
26402.22,34954.56,2382.255,-8018.235,0.0,0.0,0.0,0.0,7
23448.375,39181.77,-900.18,-11040.705,0.0,0.0,0.0,0.0,7
20628.45,43996.95,-4035.195,-13935.42,0.0,0.0,0.0,0.0,7
19272.15,46982.52,-5517.09,-15311.43,0.0,0.0,0.0,0.0,7
20130.345,46843.335,-4531.59,-14425.02,0.0,0.0,0.0,0.0,7
22864.86,43178.67,-1562.895,-11695.905,0.0,0.0,0.0,0.0,7
25622.055,38399.58,1449.36,-8929.935,0.0,0.0,0.0,0.0,7
27345.555,34836.075,3331.395,-7182.179999999999,0.0,0.0,0.0,0.0,7
26928.18,34488.81,2855.3399999999997,-7595.19,0.0,0.0,0.0,0.0,7
24454.395,37845.45,138.51,-10096.92,0.0,0.0,0.0,0.0,7
21424.455,42792.93,-3134.385,-13086.405,0.0,0.0,0.0,0.0,7
19520.415,46350.54,-5172.57,-14983.47,0.0,0.0,0.0,0.0,7
19445.895,47334.285,-5242.23,-15083.46,0.0,0.0,0.0,0.0,7
21892.5,44547.435,-2714.625,-12779.19,0.0,0.0,0.0,0.0,7
24767.595,40092.165,404.865,-9928.305,0.0,0.0,0.0,0.0,7
27009.945,35857.305,2811.105,-7691.085,0.0,0.0,0.0,0.0,7
27151.47,34449.119999999995,3008.52,-7463.205,0.0,0.0,0.0,0.0,7
25179.93,36719.189999999995,941.895,-9333.045,0.0,0.0,0.0,0.0,7
22172.355,41532.795,-2287.395,-12315.69,0.0,0.0,0.0,0.0,7
20024.73,45451.755,-4660.0199999999995,-14514.255,0.0,0.0,0.0,0.0,7
19349.19,47318.13,-5339.565,-15170.13,0.0,0.0,0.0,0.0,7
20996.28,45639.045,-3538.305,-13529.475,0.0,0.0,0.0,0.0,7
23720.535,41655.06,-644.5799999999999,-10890.765,0.0,0.0,0.0,0.0,7
26175.195,37204.74,2029.005,-8441.19,0.0,0.0,0.0,0.0,7
27101.16,34780.275,2963.745,-7539.525,0.0,0.0,0.0,0.0,7
25970.31,35818.56,1624.5449999999998,-8745.435,0.0,0.0,0.0,0.0,7
23070.87,40131.36,-1516.6799999999998,-11633.04,0.0,0.0,0.0,0.0,7
20771.595,44231.67,-4006.305,-13934.565,0.0,0.0,0.0,0.0,7
19862.28,46360.755,-4863.105,-14740.965,0.0,0.0,0.0,0.0,7
20936.34,45534.105,-3719.565,-13687.92,0.0,0.0,0.0,0.0,7
22827.195,42548.625,-1549.89,-11689.965,0.0,0.0,0.0,0.0,7
24543.629999999997,39565.08,318.28499999999997,-10013.4,0.0,0.0,0.0,0.0,7
25384.275,37364.895,1266.345,-9128.025,0.0,0.0,0.0,0.0,7
24502.14,37982.744999999995,266.31,-10008.225,0.0,0.0,0.0,0.0,7
22363.875,41351.535,-2116.62,-12185.28,0.0,0.0,0.0,0.0,7
21508.38,43678.08,-3182.895,-13149.225,0.0,0.0,0.0,0.0,7
21400.605,44568.134999999995,-3461.895,-13386.555,0.0,0.0,0.0,0.0,7
21851.73,44191.575,-2979.495,-12946.23,0.0,0.0,0.0,0.0,7
22635.629999999997,42783.119999999995,-1916.505,-12003.705,0.0,0.0,0.0,0.0,7
23071.095,41512.77,-1100.925,-11312.19,0.0,0.0,0.0,0.0,7
23574.33,39980.295,-424.53,-10711.215,0.0,0.0,0.0,0.0,7
23239.035,40081.005,-836.37,-11093.895,0.0,0.0,0.0,0.0,7
22129.02,42023.16,-2189.43,-12337.155,0.0,0.0,0.0,0.0,7
21956.175,43222.635,-2761.9649999999997,-12818.295,0.0,0.0,0.0,0.0,7
22055.76,43607.61,-2941.38,-12934.575,0.0,0.0,0.0,0.0,7
22185.629999999997,43431.435,-2613.555,-12620.655,0.0,0.0,0.0,0.0,7
22434.975,42796.575,-2152.17,-12239.055,0.0,0.0,0.0,0.0,7
22539.6,42121.755,-1716.03,-11900.295,0.0,0.0,0.0,0.0,7
22477.23,41753.88,-1559.61,-11807.19,0.0,0.0,0.0,0.0,7
22252.095,41778.09,-1821.825,-12060.135,0.0,0.0,0.0,0.0,7
22138.965,42219.225,-2155.635,-12343.32,0.0,0.0,0.0,0.0,7
22185.135,42831.945,-2415.42,-12520.215,0.0,0.0,0.0,0.0,7
22332.24,43263.18,-2455.515,-12512.16,0.0,0.0,0.0,0.0,7
22370.985,43273.395,-2472.525,-12535.74,0.0,0.0,0.0,0.0,7
22474.215,42882.48,-2253.735,-12396.15,0.0,0.0,0.0,0.0,7
22533.885,42308.64,-1932.93,-12147.48,0.0,0.0,0.0,0.0,7
22515.615,41863.23,-1705.6799999999998,-11956.905,0.0,0.0,0.0,0.0,7
22206.105,41756.939999999995,-1788.975,-12066.3,0.0,0.0,0.0,0.0,7
22154.4,42006.51,-2121.48,-12323.07,0.0,0.0,0.0,0.0,7
22158.945,42508.035,-2218.95,-12354.75,0.0,0.0,0.0,0.0,7
22264.92,42925.365,-2356.245,-12423.15,0.0,0.0,0.0,0.0,7
22492.485,43040.61,-2384.775,-12440.25,0.0,0.0,0.0,0.0,7
22544.955,42794.235,-2260.89,-12357.45,0.0,0.0,0.0,0.0,7
22493.205,42303.869999999995,-2083.14,-12234.735,0.0,0.0,0.0,0.0,7
22203.0,41849.955,-1865.52,-12039.39,0.0,0.0,0.0,0.0,7
22101.21,41664.96,-1907.775,-12142.89,0.0,0.0,0.0,0.0,7
22085.504999999997,41777.73,-2136.33,-12326.715,0.0,0.0,0.0,0.0,7
22137.66,42166.035,-2362.68,-12501.855,0.0,0.0,0.0,0.0,7
22405.59,42587.145,-2311.29,-12453.66,0.0,0.0,0.0,0.0,7
22335.57,42796.035,-2323.665,-12372.885,0.0,0.0,0.0,0.0,7
22366.98,42689.744999999995,-2261.6549999999997,-12352.14,0.0,0.0,0.0,0.0,7
22410.855,42307.155,-2101.59,-12236.13,0.0,0.0,0.0,0.0,7
22270.185,41875.29,-1928.745,-12121.335,0.0,0.0,0.0,0.0,7
22159.395,41610.915,-1856.43,-12117.465,0.0,0.0,0.0,0.0,7
22086.629999999997,41612.49,-1938.78,-12208.23,0.0,0.0,0.0,0.0,7
22013.325,41899.635,-2211.165,-12405.915,0.0,0.0,0.0,0.0,7
22032.135,42280.335,-2466.225,-12575.475,0.0,0.0,0.0,0.0,7
22235.85,42553.395,-2429.325,-12526.965,0.0,0.0,0.0,0.0,7
22381.92,42555.195,-2299.275,-12414.195,0.0,0.0,0.0,0.0,7
22493.52,42281.055,-2133.0,-12311.415,0.0,0.0,0.0,0.0,7
22530.15,41887.845,-1975.905,-12254.715,0.0,0.0,0.0,0.0,7
22108.185,41576.67,-1975.14,-12241.62,0.0,0.0,0.0,0.0,7
21934.125,41498.685,-2065.005,-12326.355,0.0,0.0,0.0,0.0,7
22001.94,41692.59,-2214.45,-12444.345,0.0,0.0,0.0,0.0,7
22042.71,42046.965,-2385.495,-12528.225,0.0,0.0,0.0,0.0,7
22312.44,42345.494999999995,-2439.225,-12577.14,0.0,0.0,0.0,0.0,7
22310.46,42425.82,-2372.265,-12483.945,0.0,0.0,0.0,0.0,7
22267.53,42246.585,-2233.35,-12378.105,0.0,0.0,0.0,0.0,7
22210.56,41882.4,-2122.065,-12319.83,0.0,0.0,0.0,0.0,7
22168.26,41549.22,-2083.14,-12378.195,0.0,0.0,0.0,0.0,7
22026.735,41412.06,-2129.94,-12455.955,0.0,0.0,0.0,0.0,7
21908.52,41500.035,-2175.5699999999997,-12459.24,0.0,0.0,0.0,0.0,7
21977.504999999997,41802.48,-2335.0499999999997,-12555.45,0.0,0.0,0.0,0.0,7
22232.205,42117.75,-2347.02,-12506.13,0.0,0.0,0.0,0.0,7
22406.895,42261.165,-2305.845,-12447.9,0.0,0.0,0.0,0.0,7
22295.655,42152.67,-2290.635,-12433.005,0.0,0.0,0.0,0.0,7
22200.57,41836.23,-2234.295,-12445.74,0.0,0.0,0.0,0.0,7
22123.035,41514.255,-2065.95,-12344.49,0.0,0.0,0.0,0.0,7
21985.83,41325.3,-2062.575,-12397.32,0.0,0.0,0.0,0.0,7
21942.495,41334.435,-2227.995,-12571.92,0.0,0.0,0.0,0.0,7
22070.205,41570.955,-2347.65,-12653.235,0.0,0.0,0.0,0.0,7
22229.91,41897.475,-2272.005,-12497.85,0.0,0.0,0.0,0.0,7
22268.52,42099.795,-2372.7149999999997,-12516.165,0.0,0.0,0.0,0.0,7
22349.655,42068.205,-2312.37,-12487.32,0.0,0.0,0.0,0.0,7
22393.395,41808.869999999995,-2031.03,-12273.03,0.0,0.0,0.0,0.0,7
22211.01,41464.125,-1955.25,-12257.955,0.0,0.0,0.0,0.0,7
21976.83,41217.885,-2016.27,-12373.515,0.0,0.0,0.0,0.0,7
21779.82,41171.715,-2185.74,-12543.57,0.0,0.0,0.0,0.0,7
21874.815,41342.355,-2292.12,-12629.52,0.0,0.0,0.0,0.0,7
22126.23,41649.795,-2296.08,-12576.915,0.0,0.0,0.0,0.0,7
22215.825,41895.36,-2463.255,-12667.32,0.0,0.0,0.0,0.0,7
22417.515,41958.36,-2411.415,-12620.835,0.0,0.0,0.0,0.0,7
22400.82,41791.32,-2140.245,-12371.4,0.0,0.0,0.0,0.0,7
22192.695,41479.29,-2149.6949999999997,-12426.165,0.0,0.0,0.0,0.0,7
21824.145,41192.01,-2144.88,-12483.405,0.0,0.0,0.0,0.0,7
21793.455,41068.575,-2070.99,-12465.855,0.0,0.0,0.0,0.0,7
21917.745,41158.98,-2125.755,-12544.335,0.0,0.0,0.0,0.0,7
21984.885,41418.63,-2304.36,-12636.63,0.0,0.0,0.0,0.0,7
22248.18,41674.275,-2332.89,-12580.425,0.0,0.0,0.0,0.0,7
22253.085,41782.86,-2321.955,-12517.02,0.0,0.0,0.0,0.0,7
22263.48,41689.395,-2284.92,-12487.815,0.0,0.0,0.0,0.0,7
22208.085,41417.55,-2160.315,-12440.7,0.0,0.0,0.0,0.0,7
22053.51,41105.07,-2113.965,-12481.425,0.0,0.0,0.0,0.0,7
21734.055,40922.595,-2133.765,-12535.965,0.0,0.0,0.0,0.0,7
21709.26,40961.79,-2224.755,-12619.665,0.0,0.0,0.0,0.0,7
21834.495,41279.085,-2339.235,-12670.02,0.0,0.0,0.0,0.0,7
21983.715,41604.93,-2427.975,-12696.705,0.0,0.0,0.0,0.0,7
22150.665,41792.22,-2480.985,-12705.48,0.0,0.0,0.0,0.0,7
22318.83,41776.65,-2339.775,-12591.855,0.0,0.0,0.0,0.0,7
22177.71,41547.33,-2183.085,-12474.135,0.0,0.0,0.0,0.0,7
21999.825,41253.885,-2130.885,-12506.445,0.0,0.0,0.0,0.0,7
21817.935,41058.18,-2122.29,-12557.79,0.0,0.0,0.0,0.0,7
21705.254999999997,41014.619999999995,-2232.495,-12655.215,0.0,0.0,0.0,0.0,7
21817.08,41162.445,-2327.13,-12705.345,0.0,0.0,0.0,0.0,7
21983.625,41428.98,-2386.395,-12712.815,0.0,0.0,0.0,0.0,7
22178.43,41662.935,-2337.615,-12616.74,0.0,0.0,0.0,0.0,7
22243.635,41711.085,-2317.545,-12573.72,0.0,0.0,0.0,0.0,7
22177.215,41532.03,-2300.31,-12590.955,0.0,0.0,0.0,0.0,7
21960.27,41240.52,-2214.0899999999997,-12556.89,0.0,0.0,0.0,0.0,7
21644.28,40997.655,-2203.65,-12586.23,0.0,0.0,0.0,0.0,7
21445.92,40909.725,-2255.895,-12699.765,0.0,0.0,0.0,0.0,7
21577.32,41011.11,-2319.615,-12738.6,0.0,0.0,0.0,0.0,7
21811.77,41265.63,-2424.15,-12759.75,0.0,0.0,0.0,0.0,7
22097.34,41525.235,-2426.67,-12703.77,0.0,0.0,0.0,0.0,7
22252.86,41631.705,-2421.315,-12663.765,0.0,0.0,0.0,0.0,7
22193.145,41527.98,-2300.1749999999997,-12572.1,0.0,0.0,0.0,0.0,7
22018.095,41258.655,-2157.795,-12484.575,0.0,0.0,0.0,0.0,7
21747.69,40981.05,-2205.63,-12570.21,0.0,0.0,0.0,0.0,7
21666.825,40831.335,-2205.045,-12650.895,0.0,0.0,0.0,0.0,7
21695.175,40858.56,-2271.33,-12714.03,0.0,0.0,0.0,0.0,7
21694.185,41069.295,-2420.865,-12773.385,0.0,0.0,0.0,0.0,7
21816.0,41320.035,-2556.72,-12825.54,0.0,0.0,0.0,0.0,7
22112.325,41490.81,-2462.085,-12707.01,0.0,0.0,0.0,0.0,7
22186.035,41469.795,-2294.955,-12549.915,0.0,0.0,0.0,0.0,7
22080.78,41260.14,-2167.065,-12487.23,0.0,0.0,0.0,0.0,7
21858.345,40983.705,-2168.055,-12558.825,0.0,0.0,0.0,0.0,7
21527.73,40764.735,-2321.595,-12714.93,0.0,0.0,0.0,0.0,7
21596.58,40744.845,-2316.4649999999997,-12758.895,0.0,0.0,0.0,0.0,7
21796.379999999997,40920.255,-2333.115,-12744.855,0.0,0.0,0.0,0.0,7
21832.245,41156.91,-2503.845,-12793.095,0.0,0.0,0.0,0.0,7
21985.83,41347.845,-2523.7799999999997,-12756.375,0.0,0.0,0.0,0.0,7
22006.485,41382.63,-2424.42,-12647.88,0.0,0.0,0.0,0.0,7
21946.86,41217.435,-2346.255,-12606.255,0.0,0.0,0.0,0.0,7
21874.59,40957.244999999995,-2227.9049999999997,-12570.84,0.0,0.0,0.0,0.0,7
21589.245,40724.685,-2231.37,-12635.55,0.0,0.0,0.0,0.0,7
21452.355,40645.665,-2348.64,-12780.405,0.0,0.0,0.0,0.0,7
21574.035,40754.16,-2365.1549999999997,-12758.085,0.0,0.0,0.0,0.0,7
21767.22,41003.28,-2445.525,-12769.695,0.0,0.0,0.0,0.0,7
21972.51,41234.13,-2481.615,-12731.49,0.0,0.0,0.0,0.0,7
22039.515,41318.01,-2480.31,-12725.91,0.0,0.0,0.0,0.0,7
21839.625,41195.744999999995,-2479.9049999999997,-12734.91,0.0,0.0,0.0,0.0,7
21805.2,40941.585,-2301.615,-12628.08,0.0,0.0,0.0,0.0,7
21744.81,40683.42,-2103.84,-12513.69,0.0,0.0,0.0,0.0,7
21491.865,40519.71,-2236.23,-12672.315,0.0,0.0,0.0,0.0,7
21516.435,40547.61,-2300.7149999999997,-12716.01,0.0,0.0,0.0,0.0,7
21613.095,40775.58,-2415.4649999999997,-12757.905,0.0,0.0,0.0,0.0,7
21864.285,41024.61,-2437.875,-12729.78,0.0,0.0,0.0,0.0,7
22111.245,41170.41,-2375.325,-12642.435,0.0,0.0,0.0,0.0,7
21993.21,41098.59,-2375.5499999999997,-12631.545,0.0,0.0,0.0,0.0,7
21803.31,40857.975,-2367.63,-12664.26,0.0,0.0,0.0,0.0,7
21617.64,40586.985,-2297.25,-12670.515,0.0,0.0,0.0,0.0,7
21397.68,40393.98,-2302.605,-12718.44,0.0,0.0,0.0,0.0,7
21370.185,40360.545,-2341.5299999999997,-12767.895,0.0,0.0,0.0,0.0,7
21539.43,40527.72,-2414.88,-12801.195,0.0,0.0,0.0,0.0,7
21753.405,40765.14,-2464.065,-12779.505,0.0,0.0,0.0,0.0,7
21928.95,40963.275,-2452.725,-12719.34,0.0,0.0,0.0,0.0,7
21913.56,40974.119999999995,-2446.245,-12709.62,0.0,0.0,0.0,0.0,7
21761.235,40788.18,-2419.1549999999997,-12703.545,0.0,0.0,0.0,0.0,7
21708.45,40517.64,-2258.145,-12611.34,0.0,0.0,0.0,0.0,7
21556.395,40290.075,-2203.83,-12644.955,0.0,0.0,0.0,0.0,7
21401.235,40206.869999999995,-2260.2149999999997,-12722.58,0.0,0.0,0.0,0.0,7
21467.16,40330.575,-2348.8199999999997,-12777.435,0.0,0.0,0.0,0.0,7
21610.035,40579.02,-2435.4,-12779.595,0.0,0.0,0.0,0.0,7
21873.42,40792.86,-2481.975,-12766.77,0.0,0.0,0.0,0.0,7
21986.955,40855.77,-2471.355,-12718.35,0.0,0.0,0.0,0.0,7
21915.36,40727.835,-2383.92,-12684.42,0.0,0.0,0.0,0.0,7
21744.81,40466.43,-2304.72,-12682.44,0.0,0.0,0.0,0.0,7
21478.32,40222.89,-2269.98,-12669.39,0.0,0.0,0.0,0.0,7
21278.655,40088.835,-2317.9049999999997,-12746.385,0.0,0.0,0.0,0.0,7
21281.085,40120.965,-2449.125,-12853.215,0.0,0.0,0.0,0.0,7
21505.95,40331.295,-2465.01,-12822.705,0.0,0.0,0.0,0.0,7
21742.83,40573.035,-2444.985,-12752.955,0.0,0.0,0.0,0.0,7
21860.1,40696.47,-2415.87,-12689.955,0.0,0.0,0.0,0.0,7
21868.379999999997,40636.53,-2366.685,-12658.41,0.0,0.0,0.0,0.0,7
21748.59,40370.625,-2316.375,-12662.145,0.0,0.0,0.0,0.0,7
21509.145,40069.439999999995,-2306.6549999999997,-12696.57,0.0,0.0,0.0,0.0,7
21300.66,39900.869999999995,-2357.2799999999997,-12792.78,0.0,0.0,0.0,0.0,7
21371.895,39902.805,-2345.67,-12792.69,0.0,0.0,0.0,0.0,7
21651.254999999997,40094.46,-2214.135,-12630.33,0.0,0.0,0.0,0.0,7
21888.495,40345.11,-2254.815,-12621.465,0.0,0.0,0.0,0.0,7
21894.3,40502.744999999995,-2416.095,-12694.32,0.0,0.0,0.0,0.0,7
21748.23,40495.86,-2498.94,-12761.685,0.0,0.0,0.0,0.0,7
21649.095,40333.814999999995,-2439.495,-12765.87,0.0,0.0,0.0,0.0,7
21515.895,40083.119999999995,-2336.895,-12736.35,0.0,0.0,0.0,0.0,7
21283.74,39871.755,-2304.495,-12740.13,0.0,0.0,0.0,0.0,7
21197.88,39814.244999999995,-2338.065,-12789.18,0.0,0.0,0.0,0.0,7
21329.46,39948.119999999995,-2420.37,-12824.91,0.0,0.0,0.0,0.0,7
21647.43,40186.035,-2462.58,-12818.52,0.0,0.0,0.0,0.0,7
21843.9,40392.81,-2426.22,-12727.89,0.0,0.0,0.0,0.0,7
21829.995,40441.41,-2434.275,-12707.19,0.0,0.0,0.0,0.0,7
21759.705,40306.455,-2426.67,-12734.145,0.0,0.0,0.0,0.0,7
21542.58,40058.685,-2379.33,-12753.0,0.0,0.0,0.0,0.0,7
21346.2,39830.31,-2209.005,-12637.8,0.0,0.0,0.0,0.0,7
21318.165,39721.41,-2146.9049999999997,-12612.645,0.0,0.0,0.0,0.0,7
21371.58,39778.65,-2236.275,-12681.36,0.0,0.0,0.0,0.0,7
21424.005,39986.55,-2441.88,-12824.415,0.0,0.0,0.0,0.0,7
21562.47,40233.105,-2574.27,-12870.72,0.0,0.0,0.0,0.0,7
21667.725,40352.625,-2607.93,-12839.85,0.0,0.0,0.0,0.0,7
21647.16,40276.395,-2513.205,-12771.18,0.0,0.0,0.0,0.0,7
21513.555,40048.335,-2405.6549999999997,-12733.425,0.0,0.0,0.0,0.0,7
21364.155,39802.41,-2309.04,-12702.825,0.0,0.0,0.0,0.0,7
21154.365,39641.355,-2330.415,-12763.935,0.0,0.0,0.0,0.0,7
21101.175,39619.935,-2406.735,-12835.44,0.0,0.0,0.0,0.0,7
21281.76,39796.74,-2468.835,-12847.59,0.0,0.0,0.0,0.0,7
21572.685,40056.165,-2464.4249999999997,-12788.28,0.0,0.0,0.0,0.0,7
21814.785,40228.425,-2427.48,-12721.185,0.0,0.0,0.0,0.0,7
21758.04,40199.085,-2436.21,-12705.885,0.0,0.0,0.0,0.0,7
21538.71,39974.535,-2445.39,-12736.89,0.0,0.0,0.0,0.0,7
21508.425,39702.78,-2247.93,-12649.05,0.0,0.0,0.0,0.0,7
21402.72,39517.515,-2083.545,-12569.715,0.0,0.0,0.0,0.0,7
21164.445,39474.18,-2245.14,-12699.27,0.0,0.0,0.0,0.0,7
21221.73,39605.715,-2435.94,-12835.935,0.0,0.0,0.0,0.0,7
21421.845,39839.535,-2544.39,-12894.57,0.0,0.0,0.0,0.0,7
21537.18,40034.385,-2596.545,-12882.645,0.0,0.0,0.0,0.0,7
21647.475,40073.895,-2473.65,-12755.295,0.0,0.0,0.0,0.0,7
21700.08,39929.13,-2285.8199999999997,-12632.895,0.0,0.0,0.0,0.0,7
21533.445,39671.685,-2204.505,-12640.095,0.0,0.0,0.0,0.0,7
21238.515,39428.955,-2243.52,-12697.83,0.0,0.0,0.0,0.0,7
21042.72,39321.81,-2374.6949999999997,-12823.29,0.0,0.0,0.0,0.0,7
21158.37,39415.23,-2411.37,-12831.615,0.0,0.0,0.0,0.0,7
21438.045,39655.53,-2415.915,-12786.03,0.0,0.0,0.0,0.0,7
21606.705,39875.445,-2448.27,-12756.195,0.0,0.0,0.0,0.0,7
21654.135,39968.325,-2500.875,-12780.135,0.0,0.0,0.0,0.0,7
21519.81,39889.665,-2554.11,-12860.595,0.0,0.0,0.0,0.0,7
21276.405,39661.875,-2511.4049999999997,-12858.39,0.0,0.0,0.0,0.0,7
21267.09,39419.91,-2264.085,-12692.52,0.0,0.0,0.0,0.0,7
21165.93,39284.1,-2189.745,-12685.68,0.0,0.0,0.0,0.0,7
21070.62,39324.869999999995,-2332.7999999999997,-12799.215,0.0,0.0,0.0,0.0,7
21231.675,39546.0,-2470.5899999999997,-12854.115,0.0,0.0,0.0,0.0,7
21500.955,39791.43,-2504.565,-12834.0,0.0,0.0,0.0,0.0,7
21699.405,39954.735,-2452.3199999999997,-12757.005,0.0,0.0,0.0,0.0,7
21615.57,39922.56,-2395.485,-12707.46,0.0,0.0,0.0,0.0,7
21466.62,39722.895,-2360.475,-12694.635,0.0,0.0,0.0,0.0,7
21245.67,39467.34,-2354.67,-12736.755,0.0,0.0,0.0,0.0,7
20952.405,39280.455,-2411.865,-12845.25,0.0,0.0,0.0,0.0,7
20885.085,39245.535,-2475.54,-12966.795,0.0,0.0,0.0,0.0,7
21183.03,39405.33,-2378.745,-12828.42,0.0,0.0,0.0,0.0,7
21401.505,39638.564999999995,-2425.5899999999997,-12776.04,0.0,0.0,0.0,0.0,7
21607.695,39827.34,-2494.575,-12787.785,0.0,0.0,0.0,0.0,7
21668.4,39867.885,-2385.9449999999997,-12688.065,0.0,0.0,0.0,0.0,7
21468.285,39730.994999999995,-2360.25,-12688.83,0.0,0.0,0.0,0.0,7
21289.545,39482.369999999995,-2372.895,-12781.08,0.0,0.0,0.0,0.0,7
21076.83,39246.66,-2361.06,-12814.605,0.0,0.0,0.0,0.0,7
20911.635,39149.1,-2344.68,-12841.65,0.0,0.0,0.0,0.0,7
20964.105,39252.735,-2402.055,-12876.795,0.0,0.0,0.0,0.0,7
21195.27,39487.545,-2463.93,-12864.96,0.0,0.0,0.0,0.0,7
21411.315,39695.895,-2534.355,-12869.64,0.0,0.0,0.0,0.0,7
21538.98,39772.845,-2529.045,-12817.17,0.0,0.0,0.0,0.0,7
21476.835,39687.119999999995,-2412.63,-12736.215,0.0,0.0,0.0,0.0,7
21274.83,39457.08,-2353.5899999999997,-12724.335,0.0,0.0,0.0,0.0,7
21065.085,39209.04,-2349.0899999999997,-12778.29,0.0,0.0,0.0,0.0,7
20875.725,39071.07,-2382.345,-12851.865,0.0,0.0,0.0,0.0,7
20919.6,39109.905,-2452.995,-12915.135,0.0,0.0,0.0,0.0,7
21114.72,39317.985,-2556.855,-12964.005,0.0,0.0,0.0,0.0,7
21295.08,39562.605,-2580.615,-12907.08,0.0,0.0,0.0,0.0,7
21538.035,39709.125,-2446.83,-12741.615,0.0,0.0,0.0,0.0,7
21556.98,39669.975,-2340.36,-12663.63,0.0,0.0,0.0,0.0,7
21324.42,39456.855,-2337.12,-12704.94,0.0,0.0,0.0,0.0,7
21074.58,39199.005,-2326.095,-12762.855,0.0,0.0,0.0,0.0,7
20902.05,39022.56,-2283.615,-12767.355,0.0,0.0,0.0,0.0,7
20874.465,38998.845,-2351.295,-12839.265,0.0,0.0,0.0,0.0,7
20997.72,39162.06,-2474.91,-12935.97,0.0,0.0,0.0,0.0,7
21211.515,39381.93,-2546.37,-12943.575,0.0,0.0,0.0,0.0,7
21405.51,39557.475,-2560.68,-12888.315,0.0,0.0,0.0,0.0,7
21388.86,39578.535,-2560.545,-12877.02,0.0,0.0,0.0,0.0,7
21229.245,39411.765,-2514.105,-12841.965,0.0,0.0,0.0,0.0,7
21103.2,39158.73,-2359.395,-12755.61,0.0,0.0,0.0,0.0,7
20945.115,38948.895,-2333.16,-12805.47,0.0,0.0,0.0,0.0,7
20839.185,38889.54,-2363.265,-12858.03,0.0,0.0,0.0,0.0,7
20974.23,39017.16,-2397.06,-12852.72,0.0,0.0,0.0,0.0,7
21123.99,39249.045,-2516.49,-12903.21,0.0,0.0,0.0,0.0,7
21357.63,39458.16,-2555.64,-12902.13,0.0,0.0,0.0,0.0,7
21469.23,39529.17,-2470.995,-12802.95,0.0,0.0,0.0,0.0,7
21301.2,39420.72,-2410.11,-12744.765,0.0,0.0,0.0,0.0,7
21159.36,39195.18,-2354.67,-12764.43,0.0,0.0,0.0,0.0,7
20972.745,38963.205,-2355.39,-12817.665,0.0,0.0,0.0,0.0,7
20745.63,38835.855,-2459.79,-12940.515,0.0,0.0,0.0,0.0,7
20739.285,38894.76,-2472.66,-12935.88,0.0,0.0,0.0,0.0,7
20975.265,39124.98,-2506.23,-12918.915,0.0,0.0,0.0,0.0,7
21189.105,39352.86,-2565.0,-12901.995,0.0,0.0,0.0,0.0,7
21355.065,39462.795,-2490.255,-12790.17,0.0,0.0,0.0,0.0,7
21344.805,39387.51,-2441.79,-12765.465,0.0,0.0,0.0,0.0,7
21173.67,39181.68,-2395.44,-12776.355,0.0,0.0,0.0,0.0,7
20964.78,38947.23,-2338.65,-12788.415,0.0,0.0,0.0,0.0,7
20734.29,38773.215,-2387.3399999999997,-12875.67,0.0,0.0,0.0,0.0,7
20713.32,38757.42,-2428.515,-12903.48,0.0,0.0,0.0,0.0,7
20964.78,38942.82,-2463.795,-12892.32,0.0,0.0,0.0,0.0,7
21154.095,39176.595,-2554.56,-12921.345,0.0,0.0,0.0,0.0,7
21315.51,39334.005,-2550.7799999999997,-12868.65,0.0,0.0,0.0,0.0,7
21355.065,39319.02,-2446.1549999999997,-12771.045,0.0,0.0,0.0,0.0,7
21238.065,39131.01,-2355.165,-12724.155,0.0,0.0,0.0,0.0,7
21041.055,38879.73,-2293.83,-12736.98,0.0,0.0,0.0,0.0,7
20821.86,38687.535,-2335.14,-12845.835,0.0,0.0,0.0,0.0,7
20677.995,38633.76,-2355.345,-12866.355,0.0,0.0,0.0,0.0,7
20795.265,38752.74,-2425.545,-12884.805,0.0,0.0,0.0,0.0,7
20946.06,38960.189999999995,-2592.54,-12971.115,0.0,0.0,0.0,0.0,7
21163.14,39154.455,-2644.245,-12967.65,0.0,0.0,0.0,0.0,7
21314.7,39205.485,-2508.165,-12832.695,0.0,0.0,0.0,0.0,7
21155.13,39072.465,-2474.5499999999997,-12823.29,0.0,0.0,0.0,0.0,7
21022.11,38824.74,-2402.505,-12817.845,0.0,0.0,0.0,0.0,7
20947.995,38608.785,-2243.79,-12729.915,0.0,0.0,0.0,0.0,7
20717.325,38502.405,-2312.64,-12829.68,0.0,0.0,0.0,0.0,7
20669.67,38560.455,-2467.305,-12925.89,0.0,0.0,0.0,0.0,7
20864.07,38770.425,-2544.8399999999997,-12943.17,0.0,0.0,0.0,0.0,7
21049.56,38993.31,-2574.72,-12911.805,0.0,0.0,0.0,0.0,7
21151.305,39093.03,-2587.815,-12883.14,0.0,0.0,0.0,0.0,7
21162.195,39015.81,-2491.785,-12809.43,0.0,0.0,0.0,0.0,7
21111.21,38809.439999999995,-2368.935,-12762.9,0.0,0.0,0.0,0.0,7
20882.835,38585.97,-2367.9449999999997,-12842.64,0.0,0.0,0.0,0.0,7
20660.625,38440.26,-2379.87,-12899.97,0.0,0.0,0.0,0.0,7
20631.24,38441.43,-2423.565,-12917.25,0.0,0.0,0.0,0.0,7
20804.715,38608.335,-2459.565,-12890.7,0.0,0.0,0.0,0.0,7
21046.5,38844.675,-2443.725,-12823.155,0.0,0.0,0.0,0.0,7
21182.94,38998.305,-2488.995,-12808.08,0.0,0.0,0.0,0.0,7
21219.075,38981.115,-2463.615,-12800.97,0.0,0.0,0.0,0.0,7
21076.92,38791.89,-2390.04,-12768.84,0.0,0.0,0.0,0.0,7
20879.1,38544.75,-2342.385,-12779.955,0.0,0.0,0.0,0.0,7
20688.66,38357.82,-2353.3199999999997,-12854.745,0.0,0.0,0.0,0.0,7
20569.41,38318.535,-2396.9249999999997,-12908.655,0.0,0.0,0.0,0.0,7
20655.315,38441.835,-2486.88,-12940.605,0.0,0.0,0.0,0.0,7
20866.86,38673.9,-2583.6749999999997,-12964.05,0.0,0.0,0.0,0.0,7
21052.845,38879.505,-2578.635,-12895.2,0.0,0.0,0.0,0.0,7
21135.645,38925.36,-2507.13,-12821.355,0.0,0.0,0.0,0.0,7
21116.475,38774.25,-2435.1749999999997,-12812.355,0.0,0.0,0.0,0.0,7
20953.89,38535.119999999995,-2377.755,-12807.495,0.0,0.0,0.0,0.0,7
20747.835,38317.32,-2317.725,-12808.665,0.0,0.0,0.0,0.0,7
20527.47,38205.675,-2388.24,-12894.12,0.0,0.0,0.0,0.0,7
20584.71,38276.369999999995,-2454.2999999999997,-12943.035,0.0,0.0,0.0,0.0,7
20815.83,38489.895,-2484.315,-12902.67,0.0,0.0,0.0,0.0,7
20988.54,38710.935,-2551.5899999999997,-12903.345,0.0,0.0,0.0,0.0,7
21100.185,38822.535,-2509.74,-12837.465,0.0,0.0,0.0,0.0,7
21061.62,38735.82,-2450.52,-12800.97,0.0,0.0,0.0,0.0,7
20872.17,38511.27,-2415.69,-12816.54,0.0,0.0,0.0,0.0,7
20669.67,38278.935,-2388.4649999999997,-12858.345,0.0,0.0,0.0,0.0,7
20466.585,38144.744999999995,-2438.8199999999997,-12953.43,0.0,0.0,0.0,0.0,7
20553.345,38163.555,-2409.75,-12907.17,0.0,0.0,0.0,0.0,7
20734.83,38344.635,-2476.7999999999997,-12920.535,0.0,0.0,0.0,0.0,7
20927.565,38577.51,-2564.595,-12949.02,0.0,0.0,0.0,0.0,7
21112.02,38748.689999999995,-2539.305,-12876.525,0.0,0.0,0.0,0.0,7
21099.195,38729.385,-2442.375,-12781.08,0.0,0.0,0.0,0.0,7
20902.86,38517.57,-2391.66,-12779.46,0.0,0.0,0.0,0.0,7
20575.71,38245.905,-2487.06,-12916.395,0.0,0.0,0.0,0.0,7
20440.26,38074.185,-2446.6949999999997,-12942.99,0.0,0.0,0.0,0.0,7
20532.96,38045.61,-2349.045,-12873.15,0.0,0.0,0.0,0.0,7
20656.62,38184.345,-2439.6749999999997,-12924.315,0.0,0.0,0.0,0.0,7
20807.28,38413.665,-2533.545,-12936.06,0.0,0.0,0.0,0.0,7
20986.335,38613.105,-2564.505,-12895.02,0.0,0.0,0.0,0.0,7
21041.685,38645.91,-2487.4649999999997,-12815.505,0.0,0.0,0.0,0.0,7
20892.825,38498.985,-2412.27,-12782.16,0.0,0.0,0.0,0.0,7
20606.985,38261.835,-2447.055,-12875.94,0.0,0.0,0.0,0.0,7
20413.26,38079.27,-2435.13,-12908.295,0.0,0.0,0.0,0.0,7
20439.27,38016.855,-2403.99,-12922.65,0.0,0.0,0.0,0.0,7
20598.345,38126.385,-2509.29,-13008.015,0.0,0.0,0.0,0.0,7
20704.275,38370.645,-2548.485,-12958.605,0.0,0.0,0.0,0.0,7
20891.52,38611.935,-2545.02,-12900.465,0.0,0.0,0.0,0.0,7
20995.695,38682.27,-2507.355,-12852.72,0.0,0.0,0.0,0.0,7
20914.875,38569.814999999995,-2453.535,-12809.385,0.0,0.0,0.0,0.0,7
20755.62,38348.46,-2416.545,-12823.695,0.0,0.0,0.0,0.0,7
20475.63,38106.494999999995,-2403.72,-12859.965,0.0,0.0,0.0,0.0,7
20313.72,37974.285,-2436.255,-12947.22,0.0,0.0,0.0,0.0,7
20363.85,38019.6,-2499.345,-12990.78,0.0,0.0,0.0,0.0,7
20550.105,38216.16,-2584.08,-13003.92,0.0,0.0,0.0,0.0,7
20841.39,38465.369999999995,-2546.415,-12909.375,0.0,0.0,0.0,0.0,7
20984.04,38592.135,-2519.865,-12843.18,0.0,0.0,0.0,0.0,7
20981.655,38535.75,-2431.665,-12777.39,0.0,0.0,0.0,0.0,7
20865.375,38325.915,-2314.7999999999997,-12715.74,0.0,0.0,0.0,0.0,7
20552.535,38057.67,-2357.955,-12815.01,0.0,0.0,0.0,0.0,7
20338.56,37868.85,-2439.585,-12958.47,0.0,0.0,0.0,0.0,7
20307.51,37825.38,-2492.2799999999997,-13000.77,0.0,0.0,0.0,0.0,7
20476.755,37968.93,-2550.15,-13005.405,0.0,0.0,0.0,0.0,7
20664.135,38201.22,-2587.815,-12976.83,0.0,0.0,0.0,0.0,7
20794.545,38383.65,-2617.245,-12945.375,0.0,0.0,0.0,0.0,7
20891.07,38404.619999999995,-2553.8399999999997,-12887.64,0.0,0.0,0.0,0.0,7
20831.85,38244.96,-2413.305,-12809.205,0.0,0.0,0.0,0.0,7
20583.99,37996.244999999995,-2396.295,-12851.28,0.0,0.0,0.0,0.0,7
20341.71,37774.35,-2417.265,-12914.73,0.0,0.0,0.0,0.0,7
20267.685,37690.785,-2424.6,-12943.71,0.0,0.0,0.0,0.0,7
20413.08,37801.305,-2481.705,-12974.805,0.0,0.0,0.0,0.0,7
20670.39,38040.3,-2513.0699999999997,-12949.74,0.0,0.0,0.0,0.0,7
20865.51,38248.11,-2512.44,-12882.69,0.0,0.0,0.0,0.0,7
20942.685,38313.63,-2481.975,-12836.565,0.0,0.0,0.0,0.0,7
20742.615,38190.375,-2463.705,-12832.92,0.0,0.0,0.0,0.0,7
20525.895,37948.365,-2445.21,-12880.53,0.0,0.0,0.0,0.0,7
20423.835,37734.57,-2351.835,-12857.805,0.0,0.0,0.0,0.0,7
20257.92,37627.92,-2405.25,-12940.155,0.0,0.0,0.0,0.0,7
20252.52,37684.485,-2501.865,-12997.98,0.0,0.0,0.0,0.0,7
20430.72,37896.93,-2549.295,-12983.04,0.0,0.0,0.0,0.0,7
20646.585,38122.335,-2557.17,-12926.07,0.0,0.0,0.0,0.0,7
20836.485,38254.994999999995,-2540.97,-12899.475,0.0,0.0,0.0,0.0,7
20755.44,38230.74,-2570.67,-12919.365,0.0,0.0,0.0,0.0,7
20658.33,38056.814999999995,-2460.015,-12856.59,0.0,0.0,0.0,0.0,7
20541.375,37814.22,-2345.895,-12837.33,0.0,0.0,0.0,0.0,7
20255.22,37662.57,-2368.395,-12902.805,0.0,0.0,0.0,0.0,7
20160.54,37663.47,-2473.92,-12988.98,0.0,0.0,0.0,0.0,7
20332.98,37832.76,-2563.29,-13028.715,0.0,0.0,0.0,0.0,7
20588.4,38067.435,-2575.305,-12984.3,0.0,0.0,0.0,0.0,7
20791.755,38252.97,-2540.88,-12904.38,0.0,0.0,0.0,0.0,7
20750.04,38264.13,-2537.145,-12883.32,0.0,0.0,0.0,0.0,7
20626.11,38105.955,-2473.47,-12863.07,0.0,0.0,0.0,0.0,7
20492.595,37875.78,-2340.0,-12796.92,0.0,0.0,0.0,0.0,7
20262.51,37687.59,-2341.89,-12861.495,0.0,0.0,0.0,0.0,7
20071.845,37627.56,-2467.62,-12994.515,0.0,0.0,0.0,0.0,7
20193.03,37745.775,-2581.74,-13062.42,0.0,0.0,0.0,0.0,7
20438.415,37975.005,-2629.935,-13051.44,0.0,0.0,0.0,0.0,7
20653.74,38175.885,-2633.4,-12998.79,0.0,0.0,0.0,0.0,7
20706.345,38243.295,-2571.525,-12918.33,0.0,0.0,0.0,0.0,7
20619.63,38127.42,-2477.88,-12865.32,0.0,0.0,0.0,0.0,7
20472.345,37884.869999999995,-2415.555,-12863.385,0.0,0.0,0.0,0.0,7
20211.075,37656.9,-2471.49,-12974.49,0.0,0.0,0.0,0.0,7
20044.935,37559.88,-2451.69,-12997.395,0.0,0.0,0.0,0.0,7
20148.57,37635.885,-2479.005,-12988.44,0.0,0.0,0.0,0.0,7
20395.17,37862.055,-2528.685,-12970.17,0.0,0.0,0.0,0.0,7
20644.875,38081.88,-2561.67,-12944.79,0.0,0.0,0.0,0.0,7
20747.205,38182.905,-2544.615,-12898.305,0.0,0.0,0.0,0.0,7
20629.8,38113.11,-2491.2,-12853.305,0.0,0.0,0.0,0.0,7
20453.4,37898.145,-2435.1749999999997,-12865.41,0.0,0.0,0.0,0.0,7
20291.535,37666.215,-2390.67,-12879.315,0.0,0.0,0.0,0.0,7
20094.525,37520.369999999995,-2459.88,-12986.325,0.0,0.0,0.0,0.0,7
20019.6,37535.805,-2535.48,-13053.015,0.0,0.0,0.0,0.0,7
20166.48,37725.119999999995,-2631.645,-13088.745,0.0,0.0,0.0,0.0,7
20437.65,37964.25,-2620.35,-13010.04,0.0,0.0,0.0,0.0,7
20646.675,38109.06,-2569.815,-12926.43,0.0,0.0,0.0,0.0,7
20625.795,38086.425,-2530.62,-12897.765,0.0,0.0,0.0,0.0,7
20448.63,37897.695,-2494.44,-12902.67,0.0,0.0,0.0,0.0,7
20264.22,37664.955,-2433.375,-12903.66,0.0,0.0,0.0,0.0,7
20094.615,37485.81,-2398.005,-12928.41,0.0,0.0,0.0,0.0,7
19980.405,37435.59,-2519.595,-13058.505,0.0,0.0,0.0,0.0,7
20127.96,37577.25,-2573.415,-13083.165,0.0,0.0,0.0,0.0,7
20381.04,37809.9,-2530.485,-12961.89,0.0,0.0,0.0,0.0,7
20619.855,38008.935,-2503.62,-12882.555,0.0,0.0,0.0,0.0,7
20672.145,38039.085,-2460.915,-12833.055,0.0,0.0,0.0,0.0,7
20603.925,37895.4,-2440.62,-12861.09,0.0,0.0,0.0,0.0,7
20331.495,37650.375,-2456.46,-12909.06,0.0,0.0,0.0,0.0,7
20065.545,37420.02,-2478.015,-12990.015,0.0,0.0,0.0,0.0,7
19899.9,37323.18,-2507.49,-13041.225,0.0,0.0,0.0,0.0,7
20017.98,37378.035,-2523.7799999999997,-13023.9,0.0,0.0,0.0,0.0,7
20260.395,37599.93,-2563.1549999999997,-13008.465,0.0,0.0,0.0,0.0,7
20554.2,37841.49,-2554.1549999999997,-12939.03,0.0,0.0,0.0,0.0,7
20736.405,37926.0,-2502.9449999999997,-12874.095,0.0,0.0,0.0,0.0,7
20566.755,37814.67,-2424.105,-12786.795,0.0,0.0,0.0,0.0,7
20349.27,37582.83,-2385.0,-12821.085,0.0,0.0,0.0,0.0,7
20092.23,37338.795,-2433.87,-12942.27,0.0,0.0,0.0,0.0,7
19871.01,37196.685,-2501.865,-13050.045,0.0,0.0,0.0,0.0,7
19927.305,37251.225,-2526.435,-13058.145,0.0,0.0,0.0,0.0,7
20123.055,37460.835,-2585.88,-13057.155,0.0,0.0,0.0,0.0,7
20354.58,37679.76,-2608.9649999999997,-13009.815,0.0,0.0,0.0,0.0,7
20524.095,37817.595,-2577.555,-12936.15,0.0,0.0,0.0,0.0,7
20495.295,37789.244999999995,-2549.9249999999997,-12910.5,0.0,0.0,0.0,0.0,7
20332.98,37615.14,-2482.9649999999997,-12890.88,0.0,0.0,0.0,0.0,7
20161.26,37382.625,-2403.0899999999997,-12898.8,0.0,0.0,0.0,0.0,7
19936.215,37211.31,-2442.015,-12994.29,0.0,0.0,0.0,0.0,7
19846.8,37184.805,-2518.29,-13064.94,0.0,0.0,0.0,0.0,7
20042.91,37323.27,-2553.0299999999997,-13044.6,0.0,0.0,0.0,0.0,7
20255.445,37552.5,-2605.23,-13019.04,0.0,0.0,0.0,0.0,7
20467.17,37745.145,-2593.125,-12963.6,0.0,0.0,0.0,0.0,7
20486.385,37771.2,-2578.68,-12943.17,0.0,0.0,0.0,0.0,7
20336.175,37615.275,-2490.0299999999997,-12905.955,0.0,0.0,0.0,0.0,7
20134.755,37333.215,-2425.545,-12913.47,0.0,0.0,0.0,0.0,7
19866.915,37117.485,-2486.205,-13018.23,0.0,0.0,0.0,0.0,7
19782.27,37047.96,-2522.6549999999997,-13057.785,0.0,0.0,0.0,0.0,7
19938.51,37165.725,-2525.805,-13030.47,0.0,0.0,0.0,0.0,7
20105.145,37409.58,-2605.275,-13050.9,0.0,0.0,0.0,0.0,7
20356.605,37634.085,-2578.545,-12977.955,0.0,0.0,0.0,0.0,7
20496.87,37728.36,-2432.97,-12831.21,0.0,0.0,0.0,0.0,7
20394.36,37606.185,-2416.95,-12842.955,0.0,0.0,0.0,0.0,7
20191.995,37362.015,-2439.6749999999997,-12901.14,0.0,0.0,0.0,0.0,7
19987.11,37128.42,-2499.435,-13001.805,0.0,0.0,0.0,0.0,7
19786.59,36995.445,-2580.075,-13113.54,0.0,0.0,0.0,0.0,7
19865.52,37047.869999999995,-2565.63,-13089.735,0.0,0.0,0.0,0.0,7
20131.335,37268.325,-2499.5699999999997,-12978.405,0.0,0.0,0.0,0.0,7
20348.505,37503.36,-2505.06,-12910.77,0.0,0.0,0.0,0.0,7
20443.905,37619.955,-2543.67,-12907.665,0.0,0.0,0.0,0.0,7
20335.365,37568.564999999995,-2576.205,-12956.715,0.0,0.0,0.0,0.0,7
20159.37,37358.46,-2516.895,-12960.99,0.0,0.0,0.0,0.0,7
19977.615,37104.119999999995,-2457.63,-12969.945,0.0,0.0,0.0,0.0,7
19755.315,36936.314999999995,-2474.865,-13011.525,0.0,0.0,0.0,0.0,7
19745.37,36939.869999999995,-2534.085,-13073.895,0.0,0.0,0.0,0.0,7
19861.92,37118.115,-2629.935,-13102.605,0.0,0.0,0.0,0.0,7
20079.135,37344.869999999995,-2658.06,-13057.605,0.0,0.0,0.0,0.0,7
20354.445,37520.055,-2585.745,-12960.045,0.0,0.0,0.0,0.0,7
20385.54,37538.1,-2540.79,-12919.14,0.0,0.0,0.0,0.0,7
20188.17,37373.355,-2536.9649999999997,-12951.045,0.0,0.0,0.0,0.0,7
19968.885,37138.23,-2500.11,-12974.58,0.0,0.0,0.0,0.0,7
19849.635,36943.56,-2435.76,-12985.38,0.0,0.0,0.0,0.0,7
19715.4,36880.244999999995,-2476.665,-13042.665,0.0,0.0,0.0,0.0,7
19817.37,37016.505,-2555.595,-13070.25,0.0,0.0,0.0,0.0,7
20050.245,37250.64,-2592.99,-13035.78,0.0,0.0,0.0,0.0,7
20240.235,37448.64,-2609.8199999999997,-13000.815,0.0,0.0,0.0,0.0,7
20305.935,37507.005,-2605.995,-12990.105,0.0,0.0,0.0,0.0,7
20189.7,37397.52,-2561.4449999999997,-12967.74,0.0,0.0,0.0,0.0,7
20006.73,37175.49,-2486.6549999999997,-12951.54,0.0,0.0,0.0,0.0,7
19731.645,37052.369999999995,-2499.435,-13009.185,0.0,0.0,0.0,0.0,7
19573.155,37001.16,-2578.995,-13117.23,0.0,0.0,0.0,0.0,7
19660.5,37068.21,-2624.76,-13146.3,0.0,0.0,0.0,0.0,7
19906.92,37268.865,-2649.33,-13127.22,0.0,0.0,0.0,0.0,7
20092.95,37502.91,-2673.045,-13070.565,0.0,0.0,0.0,0.0,7
20217.51,37648.665,-2622.96,-12982.095,0.0,0.0,0.0,0.0,7
20239.335,37593.63,-2509.29,-12898.485,0.0,0.0,0.0,0.0,7
20063.61,37377.9,-2467.35,-12910.815,0.0,0.0,0.0,0.0,7
19781.775,37143.18,-2519.595,-13012.065,0.0,0.0,0.0,0.0,7
19488.555,36991.755,-2614.9049999999997,-13156.515,0.0,0.0,0.0,0.0,7
19502.145,37002.96,-2661.48,-13196.25,0.0,0.0,0.0,0.0,7
19836.585,37212.57,-2603.385,-13101.165,0.0,0.0,0.0,0.0,7
20083.68,37450.26,-2601.99,-13027.77,0.0,0.0,0.0,0.0,7
20198.745,37601.325,-2630.115,-13006.395,0.0,0.0,0.0,0.0,7
20123.28,37593.09,-2608.065,-12992.49,0.0,0.0,0.0,0.0,7
20029.23,37420.02,-2512.7999999999997,-12951.315,0.0,0.0,0.0,0.0,7
19852.11,37173.915,-2475.63,-12969.99,0.0,0.0,0.0,0.0,7
19594.53,36974.744999999995,-2519.37,-13050.72,0.0,0.0,0.0,0.0,7
19504.62,36917.91,-2571.39,-13103.055,0.0,0.0,0.0,0.0,7
19694.115,37047.285,-2577.015,-13074.3,0.0,0.0,0.0,0.0,7
19911.06,37278.945,-2633.4,-13068.18,0.0,0.0,0.0,0.0,7
20065.095,37476.63,-2686.365,-13060.53,0.0,0.0,0.0,0.0,7
20126.925,37520.955,-2649.915,-13011.435,0.0,0.0,0.0,0.0,7
20050.38,37394.28,-2563.605,-12965.94,0.0,0.0,0.0,0.0,7
19848.06,37165.05,-2512.2149999999997,-12975.84,0.0,0.0,0.0,0.0,7
19616.265,36946.935,-2503.755,-13025.52,0.0,0.0,0.0,0.0,7
19459.26,36856.619999999995,-2558.9249999999997,-13112.73,0.0,0.0,0.0,0.0,7
19559.025,36934.56,-2596.365,-13117.545,0.0,0.0,0.0,0.0,7
19776.555,37155.51,-2638.665,-13083.12,0.0,0.0,0.0,0.0,7
20017.215,37382.85,-2671.245,-13059.18,0.0,0.0,0.0,0.0,7
20208.06,37514.385,-2582.91,-12966.975,0.0,0.0,0.0,0.0,7
20174.49,37448.775,-2520.315,-12937.77,0.0,0.0,0.0,0.0,7
19858.005,37221.975,-2512.08,-12962.43,0.0,0.0,0.0,0.0,7
19615.59,37012.32,-2510.91,-13031.37,0.0,0.0,0.0,0.0,7
19407.195,36987.165,-2573.1,-13138.605,0.0,0.0,0.0,0.0,7
19385.01,37032.84,-2614.9049999999997,-13163.175,0.0,0.0,0.0,0.0,7
19601.37,37226.61,-2656.44,-13151.115,0.0,0.0,0.0,0.0,7
19833.21,37473.165,-2714.805,-13126.905,0.0,0.0,0.0,0.0,7
19970.28,37633.5,-2736.27,-13089.195,0.0,0.0,0.0,0.0,7
19964.835,37622.205,-2682.585,-13053.015,0.0,0.0,0.0,0.0,7
19838.205,37433.205,-2579.805,-12998.52,0.0,0.0,0.0,0.0,7
19627.47,37181.655,-2553.525,-13035.555,0.0,0.0,0.0,0.0,7
19396.53,36981.135,-2595.6,-13127.985,0.0,0.0,0.0,0.0,7
19352.07,36933.03,-2636.8199999999997,-13177.53,0.0,0.0,0.0,0.0,7
19534.005,37098.765,-2664.72,-13169.655,0.0,0.0,0.0,0.0,7
19775.025,37323.494999999995,-2675.6549999999997,-13118.265,0.0,0.0,0.0,0.0,7
19965.87,37486.17,-2670.0299999999997,-13050.27,0.0,0.0,0.0,0.0,7
19952.37,37516.005,-2697.435,-13059.09,0.0,0.0,0.0,0.0,7
19916.415,37381.635,-2576.565,-12992.49,0.0,0.0,0.0,0.0,7
19723.86,37137.105,-2471.4,-12957.48,0.0,0.0,0.0,0.0,7
19434.78,36917.145,-2523.645,-13061.655,0.0,0.0,0.0,0.0,7
19296.36,36836.46,-2590.92,-13160.475,0.0,0.0,0.0,0.0,7
19444.815,36940.005,-2607.48,-13143.645,0.0,0.0,0.0,0.0,7
19665.18,37161.63,-2666.025,-13128.795,0.0,0.0,0.0,0.0,7
19884.33,37387.125,-2687.22,-13075.335,0.0,0.0,0.0,0.0,7
19995.345,37487.43,-2657.0699999999997,-13021.83,0.0,0.0,0.0,0.0,7
19892.385,37400.895,-2608.65,-13005.855,0.0,0.0,0.0,0.0,7
19662.885,37167.525,-2564.415,-13023.18,0.0,0.0,0.0,0.0,7
19461.78,36933.119999999995,-2541.915,-13062.78,0.0,0.0,0.0,0.0,7
19323.72,36795.42,-2555.685,-13114.395,0.0,0.0,0.0,0.0,7
19345.185,36819.494999999995,-2608.74,-13146.165,0.0,0.0,0.0,0.0,7
19506.78,37003.86,-2707.515,-13181.445,0.0,0.0,0.0,0.0,7
19754.28,37224.09,-2723.67,-13134.33,0.0,0.0,0.0,0.0,7
19933.785,37367.91,-2673.765,-13045.14,0.0,0.0,0.0,0.0,7
19857.51,37340.145,-2677.68,-13057.965,0.0,0.0,0.0,0.0,7
19713.15,37143.99,-2603.52,-13038.705,0.0,0.0,0.0,0.0,7
19581.03,36910.8,-2528.37,-13039.245,0.0,0.0,0.0,0.0,7
19412.595,36736.785,-2470.23,-13039.74,0.0,0.0,0.0,0.0,7
19267.29,36724.77,-2567.835,-13122.495,0.0,0.0,0.0,0.0,7
19379.16,36908.1,-2666.835,-13161.24,0.0,0.0,0.0,0.0,7
19617.705,37162.125,-2713.095,-13142.61,0.0,0.0,0.0,0.0,7
19832.22,37359.855,-2703.915,-13081.95,0.0,0.0,0.0,0.0,7
19866.285,37387.935,-2668.3199999999997,-13039.47,0.0,0.0,0.0,0.0,7
19725.12,37240.2,-2611.5299999999997,-13018.68,0.0,0.0,0.0,0.0,7
19523.34,37014.119999999995,-2561.355,-13042.08,0.0,0.0,0.0,0.0,7
19301.805,36815.4,-2586.105,-13125.42,0.0,0.0,0.0,0.0,7
19209.285,36749.52,-2612.475,-13162.365,0.0,0.0,0.0,0.0,7
19396.395,36852.75,-2633.805,-13162.005,0.0,0.0,0.0,0.0,7
19646.595,37066.14,-2656.485,-13127.58,0.0,0.0,0.0,0.0,7
19844.55,37215.72,-2583.18,-12985.245,0.0,0.0,0.0,0.0,7
19821.825,37246.635,-2631.735,-12997.665,0.0,0.0,0.0,0.0,7
19728.45,37140.66,-2630.16,-13024.935,0.0,0.0,0.0,0.0,7
19521.45,36930.195,-2599.02,-13049.865,0.0,0.0,0.0,0.0,7
19290.555,36727.83,-2583.63,-13095.045,0.0,0.0,0.0,0.0,7
19198.665,36634.994999999995,-2553.615,-13117.23,0.0,0.0,0.0,0.0,7
19251.135,36682.605,-2592.72,-13131.36,0.0,0.0,0.0,0.0,7
19434.285,36886.365,-2669.1749999999997,-13141.98,0.0,0.0,0.0,0.0,7
19646.01,37101.78,-2710.845,-13115.7,0.0,0.0,0.0,0.0,7
19788.57,37207.305,-2702.025,-13072.23,0.0,0.0,0.0,0.0,7
19761.435,37161.27,-2632.995,-13017.465,0.0,0.0,0.0,0.0,7
19590.48,36968.76,-2570.535,-13008.015,0.0,0.0,0.0,0.0,7
19359.675,36731.52,-2548.2149999999997,-13051.035,0.0,0.0,0.0,0.0,7
19124.91,36550.619999999995,-2602.395,-13154.895,0.0,0.0,0.0,0.0,7
19108.26,36514.89,-2652.795,-13195.08,0.0,0.0,0.0,0.0,7
19389.555,36693.135,-2624.94,-13127.535,0.0,0.0,0.0,0.0,7
19614.96,36941.625,-2705.805,-13142.43,0.0,0.0,0.0,0.0,7
19720.755,37111.68,-2714.895,-13074.075,0.0,0.0,0.0,0.0,7
19804.545,37114.965,-2587.0499999999997,-12973.995,0.0,0.0,0.0,0.0,7
19667.34,36950.895,-2547.72,-12994.38,0.0,0.0,0.0,0.0,7
19461.87,36724.905,-2503.845,-13013.19,0.0,0.0,0.0,0.0,7
19282.095,36528.705,-2482.92,-13059.99,0.0,0.0,0.0,0.0,7
19099.62,36462.42,-2546.865,-13099.365,0.0,0.0,0.0,0.0,7
19222.38,36587.07,-2629.44,-13135.545,0.0,0.0,0.0,0.0,7
19459.8,36820.395,-2694.7799999999997,-13141.08,0.0,0.0,0.0,0.0,7
19663.605,37021.95,-2704.545,-13092.165,0.0,0.0,0.0,0.0,7
19723.86,37078.875,-2662.785,-13037.355,0.0,0.0,0.0,0.0,7
19636.245,36962.955,-2590.38,-12999.69,0.0,0.0,0.0,0.0,7
19435.365,36735.39,-2530.2149999999997,-12994.785,0.0,0.0,0.0,0.0,7
19226.16,36512.235,-2507.085,-13029.3,0.0,0.0,0.0,0.0,7
19054.71,36406.395,-2561.04,-13116.78,0.0,0.0,0.0,0.0,7
19105.605,36465.255,-2647.44,-13180.095,0.0,0.0,0.0,0.0,7
19313.955,36671.535,-2709.9449999999997,-13181.445,0.0,0.0,0.0,0.0,7
19585.53,36895.41,-2707.605,-13113.09,0.0,0.0,0.0,0.0,7
19777.41,37080.9,-2672.505,-13056.615,0.0,0.0,0.0,0.0,7
19671.03,37059.66,-2610.9449999999997,-13002.57,0.0,0.0,0.0,0.0,7
19442.52,36839.655,-2594.61,-13051.485,0.0,0.0,0.0,0.0,7
19167.21,36618.435,-2616.615,-13130.055,0.0,0.0,0.0,0.0,7
18981.45,36462.735,-2592.81,-13153.005,0.0,0.0,0.0,0.0,7
19027.53,36483.21,-2619.9449999999997,-13179.195,0.0,0.0,0.0,0.0,7
19203.795,36685.485,-2678.265,-13182.795,0.0,0.0,0.0,0.0,7
19390.14,36932.939999999995,-2743.065,-13168.935,0.0,0.0,0.0,0.0,7
19566.855,37115.28,-2760.795,-13140.315,0.0,0.0,0.0,0.0,7
19581.66,37112.715,-2698.1549999999997,-13085.595,0.0,0.0,0.0,0.0,7
19457.82,36932.355,-2609.415,-13044.285,0.0,0.0,0.0,0.0,7
19216.08,36696.42,-2609.2799999999997,-13105.53,0.0,0.0,0.0,0.0,7
19032.66,36517.994999999995,-2564.37,-13130.37,0.0,0.0,0.0,0.0,7
18971.55,36473.31,-2552.805,-13131.135,0.0,0.0,0.0,0.0,7
19129.005,36605.52,-2634.885,-13147.65,0.0,0.0,0.0,0.0,7
19385.595,36842.895,-2684.205,-13132.665,0.0,0.0,0.0,0.0,7
19546.065,37037.205,-2729.205,-13130.19,0.0,0.0,0.0,0.0,7
19557.36,37088.685,-2720.115,-13111.065,0.0,0.0,0.0,0.0,7
19456.29,36948.195,-2639.52,-13059.72,0.0,0.0,0.0,0.0,7
19299.24,36733.68,-2581.6949999999997,-13066.11,0.0,0.0,0.0,0.0,7
19090.755,36530.055,-2584.5299999999997,-13137.48,0.0,0.0,0.0,0.0,7
18891.765,36434.744999999995,-2623.365,-13185.27,0.0,0.0,0.0,0.0,7
19028.61,36523.485,-2634.66,-13165.965,0.0,0.0,0.0,0.0,7
19251.855,36737.325,-2679.615,-13143.78,0.0,0.0,0.0,0.0,7
19427.715,36950.58,-2730.7349999999997,-13133.025,0.0,0.0,0.0,0.0,7
19532.925,37050.345,-2720.25,-13109.895,0.0,0.0,0.0,0.0,7
19483.245,36977.805,-2653.74,-13066.695,0.0,0.0,0.0,0.0,7
19314.045,36760.41,-2596.995,-13058.505,0.0,0.0,0.0,0.0,7
19076.94,36524.744999999995,-2582.325,-13094.1,0.0,0.0,0.0,0.0,7
18874.935,36379.755,-2615.67,-13173.75,0.0,0.0,0.0,0.0,7
18899.37,36398.25,-2660.265,-13218.885,0.0,0.0,0.0,0.0,7
19087.47,36590.265,-2698.065,-13187.925,0.0,0.0,0.0,0.0,7
19341.135,36812.115,-2729.3399999999997,-13151.07,0.0,0.0,0.0,0.0,7
19506.96,36950.13,-2725.83,-13102.875,0.0,0.0,0.0,0.0,7
19496.34,36923.67,-2677.68,-13075.065,0.0,0.0,0.0,0.0,7
19339.65,36763.56,-2607.48,-13063.905,0.0,0.0,0.0,0.0,7
19140.615,36546.885,-2509.38,-13023.855,0.0,0.0,0.0,0.0,7
18930.24,36374.31,-2515.0499999999997,-13082.355,0.0,0.0,0.0,0.0,7
18853.83,36341.369999999995,-2619.0,-13193.955,0.0,0.0,0.0,0.0,7
19016.325,36489.06,-2672.46,-13196.34,0.0,0.0,0.0,0.0,7
19217.025,36706.23,-2739.15,-13189.32,0.0,0.0,0.0,0.0,7
19385.91,36891.18,-2764.395,-13150.845,0.0,0.0,0.0,0.0,7
19450.62,36928.755,-2700.0899999999997,-13082.31,0.0,0.0,0.0,0.0,7
19340.01,36812.07,-2635.1549999999997,-13062.915,0.0,0.0,0.0,0.0,7
19202.31,36594.855,-2521.035,-13026.78,0.0,0.0,0.0,0.0,7
18966.06,36398.205,-2516.76,-13070.43,0.0,0.0,0.0,0.0,7
18807.885,36317.07,-2616.0299999999997,-13184.595,0.0,0.0,0.0,0.0,7
18887.94,36433.935,-2720.385,-13257.27,0.0,0.0,0.0,0.0,7
19062.63,36657.36,-2779.56,-13237.065,0.0,0.0,0.0,0.0,7
19301.175,36879.03,-2747.3399999999997,-13144.545,0.0,0.0,0.0,0.0,7
19427.805,36970.064999999995,-2714.49,-13100.355,0.0,0.0,0.0,0.0,7
19354.995,36882.63,-2673.36,-13086.315,0.0,0.0,0.0,0.0,7
19157.445,36662.67,-2616.975,-13094.505,0.0,0.0,0.0,0.0,7
18961.56,36434.79,-2564.37,-13096.845,0.0,0.0,0.0,0.0,7
18761.85,36318.06,-2605.455,-13164.03,0.0,0.0,0.0,0.0,7
18816.75,36354.96,-2676.105,-13238.865,0.0,0.0,0.0,0.0,7
19047.375,36555.21,-2673.0899999999997,-13160.835,0.0,0.0,0.0,0.0,7
19285.785,36776.655,-2687.49,-13110.93,0.0,0.0,0.0,0.0,7
19383.03,36905.49,-2723.58,-13111.29,0.0,0.0,0.0,0.0,7
19281.15,36869.76,-2708.955,-13116.06,0.0,0.0,0.0,0.0,7
19123.56,36685.26,-2660.85,-13120.965,0.0,0.0,0.0,0.0,7
18961.92,36445.005,-2566.935,-13092.84,0.0,0.0,0.0,0.0,7
18753.255,36259.785,-2612.025,-13182.57,0.0,0.0,0.0,0.0,7
18681.705,36247.905,-2707.1549999999997,-13277.205,0.0,0.0,0.0,0.0,7
18862.605,36409.185,-2747.115,-13263.975,0.0,0.0,0.0,0.0,7
19143.18,36631.53,-2727.495,-13179.465,0.0,0.0,0.0,0.0,7
19359.99,36808.425,-2689.02,-13086.405,0.0,0.0,0.0,0.0,7
19347.93,36834.119999999995,-2696.22,-13093.02,0.0,0.0,0.0,0.0,7
19229.355,36772.335,-2618.37,-13059.495,0.0,0.0,0.0,0.0,7
19022.22,36568.035,-2563.335,-13068.315,0.0,0.0,0.0,0.0,7
18762.255,36356.49,-2606.85,-13171.905,0.0,0.0,0.0,0.0,7
18596.385,36275.895,-2698.6949999999997,-13268.295,0.0,0.0,0.0,0.0,7
18765.81,36375.435,-2707.245,-13248.54,0.0,0.0,0.0,0.0,7
19037.835,36598.635,-2731.815,-13213.485,0.0,0.0,0.0,0.0,7
19252.62,36811.98,-2738.835,-13149.135,0.0,0.0,0.0,0.0,7
19309.77,36890.369999999995,-2719.08,-13106.475,0.0,0.0,0.0,0.0,7
19239.66,36784.17,-2664.315,-13090.365,0.0,0.0,0.0,0.0,7
19053.675,36562.23,-2583.4049999999997,-13065.165,0.0,0.0,0.0,0.0,7
18829.08,36335.07,-2544.5699999999997,-13080.87,0.0,0.0,0.0,0.0,7
18650.925,36196.65,-2586.915,-13165.74,0.0,0.0,0.0,0.0,7
18695.79,36252.72,-2649.1949999999997,-13206.96,0.0,0.0,0.0,0.0,7
18889.605,36466.11,-2713.815,-13221.09,0.0,0.0,0.0,0.0,7
19123.92,36683.505,-2754.81,-13204.215,0.0,0.0,0.0,0.0,7
19249.065,36792.765,-2761.2,-13163.445,0.0,0.0,0.0,0.0,7
19239.795,36742.185,-2653.47,-13088.25,0.0,0.0,0.0,0.0,7
19153.845,36564.66,-2503.08,-13001.31,0.0,0.0,0.0,0.0,7
18856.62,36349.29,-2553.705,-13070.475,0.0,0.0,0.0,0.0,7
18611.37,36191.16,-2619.315,-13177.26,0.0,0.0,0.0,0.0,7
18594.36,36175.635,-2653.335,-13230.765,0.0,0.0,0.0,0.0,7
18786.96,36314.82,-2708.46,-13231.62,0.0,0.0,0.0,0.0,7
19018.485,36519.119999999995,-2761.56,-13218.075,0.0,0.0,0.0,0.0,7
19203.3,36684.494999999995,-2779.74,-13178.745,0.0,0.0,0.0,0.0,7
19250.82,36700.335,-2702.115,-13095.855,0.0,0.0,0.0,0.0,7
19138.59,36549.09,-2594.6549999999997,-13029.93,0.0,0.0,0.0,0.0,7
18869.535,36318.465,-2560.725,-13059.495,0.0,0.0,0.0,0.0,7
18650.43,36130.185,-2569.68,-13142.07,0.0,0.0,0.0,0.0,7
18561.015,36074.88,-2621.475,-13214.34,0.0,0.0,0.0,0.0,7
18672.345,36196.74,-2702.52,-13245.3,0.0,0.0,0.0,0.0,7
18919.035,36434.835,-2745.27,-13217.715,0.0,0.0,0.0,0.0,7
19184.13,36626.175,-2716.515,-13127.13,0.0,0.0,0.0,0.0,7
19307.43,36687.51,-2653.6949999999997,-13061.43,0.0,0.0,0.0,0.0,7
19136.655,36578.655,-2606.985,-13034.565,0.0,0.0,0.0,0.0,7
18823.23,36360.45,-2625.165,-13119.525,0.0,0.0,0.0,0.0,7
18591.885,36152.055,-2685.555,-13251.24,0.0,0.0,0.0,0.0,7
18461.97,36050.58,-2685.285,-13277.97,0.0,0.0,0.0,0.0,7
18568.845,36115.875,-2662.515,-13226.535,0.0,0.0,0.0,0.0,7
18825.795,36332.685,-2697.975,-13205.25,0.0,0.0,0.0,0.0,7
19068.255,36543.195,-2738.385,-13176.405,0.0,0.0,0.0,0.0,7
19241.595,36640.619999999995,-2666.9249999999997,-13070.88,0.0,0.0,0.0,0.0,7
19150.875,36575.595,-2634.795,-13051.8,0.0,0.0,0.0,0.0,7
18921.24,36360.36,-2623.365,-13102.065,0.0,0.0,0.0,0.0,7
18620.37,36118.485,-2637.225,-13176.675,0.0,0.0,0.0,0.0,7
18339.345,35954.595,-2766.645,-13337.01,0.0,0.0,0.0,0.0,7
18381.51,35913.6,-2781.225,-13338.18,0.0,0.0,0.0,0.0,7
18797.67,36069.705,-2623.455,-13150.575,0.0,0.0,0.0,0.0,7
19027.26,36302.265,-2689.1549999999997,-13156.965,0.0,0.0,0.0,0.0,7
19206.63,36458.91,-2713.455,-13133.745,0.0,0.0,0.0,0.0,7
19169.055,36462.78,-2609.865,-13030.425,0.0,0.0,0.0,0.0,7
18958.455,36287.505,-2578.3199999999997,-13045.95,0.0,0.0,0.0,0.0,7
18697.995,36061.335,-2569.3199999999997,-13100.58,0.0,0.0,0.0,0.0,7
18500.805,35885.205,-2559.33,-13140.09,0.0,0.0,0.0,0.0,7
18443.07,35845.02,-2636.73,-13230.09,0.0,0.0,0.0,0.0,7
18588.825,35994.33,-2716.1549999999997,-13253.355,0.0,0.0,0.0,0.0,7
18837.585,36223.47,-2726.865,-13199.265,0.0,0.0,0.0,0.0,7
19051.2,36430.605,-2762.8199999999997,-13184.415,0.0,0.0,0.0,0.0,7
19092.78,36477.27,-2720.565,-13134.645,0.0,0.0,0.0,0.0,7
18954.135,36337.68,-2644.605,-13086.405,0.0,0.0,0.0,0.0,7
18748.8,36090.494999999995,-2594.6549999999997,-13100.67,0.0,0.0,0.0,0.0,7
18495.045,35877.465,-2626.605,-13183.245,0.0,0.0,0.0,0.0,7
18405.855,35772.885,-2635.785,-13236.21,0.0,0.0,0.0,0.0,7
18531.27,35844.255,-2673.27,-13248.09,0.0,0.0,0.0,0.0,7
18678.735,36056.25,-2754.54,-13239.945,0.0,0.0,0.0,0.0,7
18919.755,36282.869999999995,-2759.94,-13178.025,0.0,0.0,0.0,0.0,7
19186.065,36384.255,-2581.83,-12987.99,0.0,0.0,0.0,0.0,7
19133.055,36299.655,-2487.915,-12929.535,0.0,0.0,0.0,0.0,7
18826.245,36081.36,-2558.745,-13057.38,0.0,0.0,0.0,0.0,7
18539.685,35848.665,-2645.8199999999997,-13201.245,0.0,0.0,0.0,0.0,7
18307.26,35705.97,-2697.75,-13281.615,0.0,0.0,0.0,0.0,7
18378.81,35726.22,-2710.2149999999997,-13291.965,0.0,0.0,0.0,0.0,7
18635.31,35907.57,-2699.865,-13237.74,0.0,0.0,0.0,0.0,7
18837.945,36136.485,-2738.565,-13201.56,0.0,0.0,0.0,0.0,7
19027.71,36291.51,-2704.41,-13129.605,0.0,0.0,0.0,0.0,7
19011.06,36289.035,-2669.895,-13099.68,0.0,0.0,0.0,0.0,7
18810.765,36121.994999999995,-2639.0699999999997,-13095.54,0.0,0.0,0.0,0.0,7
18591.48,35899.515,-2605.365,-13124.115,0.0,0.0,0.0,0.0,7
18348.93,35732.295,-2623.3199999999997,-13207.05,0.0,0.0,0.0,0.0,7
18298.305,35698.14,-2675.25,-13268.745,0.0,0.0,0.0,0.0,7
18482.805,35840.97,-2732.4449999999997,-13274.37,0.0,0.0,0.0,0.0,7
18730.08,36058.455,-2726.415,-13197.015,0.0,0.0,0.0,0.0,7
18933.435,36221.49,-2731.815,-13150.305,0.0,0.0,0.0,0.0,7
18921.825,36229.185,-2727.9449999999997,-13130.1,0.0,0.0,0.0,0.0,7
18803.61,36089.28,-2693.475,-13141.17,0.0,0.0,0.0,0.0,7
18682.56,35875.935,-2561.49,-13088.835,0.0,0.0,0.0,0.0,7
18473.85,35669.744999999995,-2539.485,-13131.81,0.0,0.0,0.0,0.0,7
18319.32,35572.814999999995,-2639.745,-13247.64,0.0,0.0,0.0,0.0,7
18402.435,35662.77,-2661.5699999999997,-13226.715,0.0,0.0,0.0,0.0,7
18620.595,35890.47,-2715.795,-13216.815,0.0,0.0,0.0,0.0,7
18844.83,36092.655,-2752.38,-13189.23,0.0,0.0,0.0,0.0,7
18980.91,36163.26,-2683.17,-13106.295,0.0,0.0,0.0,0.0,7
18900.315,36060.75,-2623.185,-13072.77,0.0,0.0,0.0,0.0,7
18650.205,35839.755,-2600.685,-13103.145,0.0,0.0,0.0,0.0,7
18417.465,35611.92,-2595.7799999999997,-13157.775,0.0,0.0,0.0,0.0,7
18216.855,35494.56,-2650.365,-13248.36,0.0,0.0,0.0,0.0,7
18295.425,35547.299999999996,-2679.075,-13262.94,0.0,0.0,0.0,0.0,7
18560.07,35749.395,-2687.4449999999997,-13212.315,0.0,0.0,0.0,0.0,7
18769.32,35964.72,-2740.9049999999997,-13195.575,0.0,0.0,0.0,0.0,7
18977.895,36106.785,-2657.565,-13078.08,0.0,0.0,0.0,0.0,7
18955.395,36079.92,-2585.79,-13025.835,0.0,0.0,0.0,0.0,7
18679.23,35895.869999999995,-2629.5299999999997,-13117.68,0.0,0.0,0.0,0.0,7
18404.73,35646.165,-2657.25,-13203.27,0.0,0.0,0.0,0.0,7
18293.4,35432.955,-2579.4,-13183.515,0.0,0.0,0.0,0.0,7
18301.905,35415.135,-2575.2149999999997,-13183.875,0.0,0.0,0.0,0.0,7
18438.93,35586.585,-2663.64,-13211.325,0.0,0.0,0.0,0.0,7
18677.25,35809.695,-2721.7349999999997,-13202.46,0.0,0.0,0.0,0.0,7
18873.72,35978.4,-2717.2799999999997,-13156.47,0.0,0.0,0.0,0.0,7
18828.855,35981.595,-2705.22,-13120.92,0.0,0.0,0.0,0.0,7
18729.765,35830.35,-2608.11,-13076.865,0.0,0.0,0.0,0.0,7
18495.0,35602.65,-2567.835,-13105.755,0.0,0.0,0.0,0.0,7
18240.12,35401.725,-2614.23,-13208.22,0.0,0.0,0.0,0.0,7
18108.36,35318.025,-2716.29,-13310.55,0.0,0.0,0.0,0.0,7
18318.285,35430.479999999996,-2725.92,-13291.02,0.0,0.0,0.0,0.0,7
18640.71,35653.32,-2661.345,-13186.62,0.0,0.0,0.0,0.0,7
18858.06,35844.705,-2654.37,-13124.655,0.0,0.0,0.0,0.0,7
18905.76,35897.67,-2643.885,-13094.46,0.0,0.0,0.0,0.0,7
18757.89,35773.335,-2619.36,-13081.32,0.0,0.0,0.0,0.0,7
18548.775,35535.645,-2614.5899999999997,-13113.72,0.0,0.0,0.0,0.0,7
18318.87,35317.034999999996,-2593.845,-13152.465,0.0,0.0,0.0,0.0,7
18156.78,35195.715,-2592.0899999999997,-13203.585,0.0,0.0,0.0,0.0,7
18167.49,35245.979999999996,-2676.555,-13250.79,0.0,0.0,0.0,0.0,7
18418.905,35451.945,-2712.51,-13226.76,0.0,0.0,0.0,0.0,7
18682.83,35674.155,-2728.395,-13186.665,0.0,0.0,0.0,0.0,7
18849.105,35787.645,-2702.9249999999997,-13131.135,0.0,0.0,0.0,0.0,7
18825.255,35724.78,-2605.68,-13056.615,0.0,0.0,0.0,0.0,7
18626.895,35524.034999999996,-2548.44,-13048.92,0.0,0.0,0.0,0.0,7
18405.405,35279.729999999996,-2557.035,-13121.91,0.0,0.0,0.0,0.0,7
18177.3,35124.659999999996,-2597.76,-13211.91,0.0,0.0,0.0,0.0,7
18138.42,35127.54,-2624.895,-13224.015,0.0,0.0,0.0,0.0,7
18323.505,35294.085,-2694.69,-13238.19,0.0,0.0,0.0,0.0,7
18603.54,35500.275,-2717.64,-13198.995,0.0,0.0,0.0,0.0,7
18792.36,35641.935,-2690.055,-13118.94,0.0,0.0,0.0,0.0,7
18769.68,35630.46,-2658.915,-13086.045,0.0,0.0,0.0,0.0,7
18671.985,35469.63,-2562.48,-13051.845,0.0,0.0,0.0,0.0,7
18484.02,35252.235,-2455.6949999999997,-13015.98,0.0,0.0,0.0,0.0,7
18249.48,35069.085,-2507.58,-13122.135,0.0,0.0,0.0,0.0,7
18088.245,35030.295,-2617.11,-13230.225,0.0,0.0,0.0,0.0,7
18168.345,35174.835,-2702.115,-13270.905,0.0,0.0,0.0,0.0,7
18419.625,35398.485,-2736.9449999999997,-13238.955,0.0,0.0,0.0,0.0,7
18664.155,35598.96,-2743.47,-13184.28,0.0,0.0,0.0,0.0,7
18752.985,35669.744999999995,-2688.39,-13121.415,0.0,0.0,0.0,0.0,7
18678.33,35557.695,-2567.3399999999997,-13038.885,0.0,0.0,0.0,0.0,7
18402.525,35322.345,-2597.04,-13116.555,0.0,0.0,0.0,0.0,7
18150.255,35115.795,-2596.545,-13187.475,0.0,0.0,0.0,0.0,7
18009.045,35027.369999999995,-2613.915,-13238.505,0.0,0.0,0.0,0.0,7
18131.085,35106.525,-2651.76,-13243.68,0.0,0.0,0.0,0.0,7
18379.665,35313.435,-2710.305,-13236.12,0.0,0.0,0.0,0.0,7
18597.825,35515.845,-2726.955,-13188.78,0.0,0.0,0.0,0.0,7
18739.08,35613.225,-2668.77,-13106.79,0.0,0.0,0.0,0.0,7
18670.095,35560.799999999996,-2623.005,-13078.53,0.0,0.0,0.0,0.0,7
18452.25,35350.56,-2574.045,-13083.84,0.0,0.0,0.0,0.0,7
18229.185,35118.9,-2562.525,-13139.595,0.0,0.0,0.0,0.0,7
18029.295,35001.045,-2594.385,-13209.345,0.0,0.0,0.0,0.0,7
18038.835,35019.09,-2645.64,-13243.455,0.0,0.0,0.0,0.0,7
18246.825,35192.295,-2697.8399999999997,-13238.28,0.0,0.0,0.0,0.0,7
18505.89,35409.104999999996,-2720.52,-13198.455,0.0,0.0,0.0,0.0,7
18721.665,35575.424999999996,-2666.6549999999997,-13102.065,0.0,0.0,0.0,0.0,7
18658.44,35570.43,-2651.13,-13094.685,0.0,0.0,0.0,0.0,7
18426.285,35404.92,-2660.49,-13144.41,0.0,0.0,0.0,0.0,7
18213.03,35147.655,-2601.63,-13152.42,0.0,0.0,0.0,0.0,7
18018.81,34957.17,-2601.4049999999997,-13203.765,0.0,0.0,0.0,0.0,7
18005.309999999998,34926.345,-2596.77,-13213.305,0.0,0.0,0.0,0.0,7
18170.325,35063.369999999995,-2656.395,-13223.52,0.0,0.0,0.0,0.0,7
18400.455,35296.74,-2715.2999999999997,-13218.615,0.0,0.0,0.0,0.0,7
18594.09,35496.585,-2718.3599999999997,-13168.215,0.0,0.0,0.0,0.0,7
18641.475,35549.145,-2660.04,-13095.045,0.0,0.0,0.0,0.0,7
18514.17,35429.445,-2602.5299999999997,-13069.125,0.0,0.0,0.0,0.0,7
18339.075,35212.77,-2521.08,-13055.985,0.0,0.0,0.0,0.0,7
18098.64,35011.665,-2531.25,-13124.34,0.0,0.0,0.0,0.0,7
17899.875,34910.19,-2646.0,-13251.915,0.0,0.0,0.0,0.0,7
18030.33,35003.295,-2676.87,-13262.13,0.0,0.0,0.0,0.0,7
18284.31,35215.784999999996,-2712.825,-13232.475,0.0,0.0,0.0,0.0,7
18517.68,35414.369999999995,-2711.6549999999997,-13172.895,0.0,0.0,0.0,0.0,7
18630.045,35495.1,-2693.745,-13133.25,0.0,0.0,0.0,0.0,7
18549.45,35423.1,-2644.56,-13100.22,0.0,0.0,0.0,0.0,7
18356.985,35226.315,-2557.17,-13071.735,0.0,0.0,0.0,0.0,7
18129.105,35007.39,-2538.72,-13112.28,0.0,0.0,0.0,0.0,7
17886.645,34874.28,-2645.055,-13244.805,0.0,0.0,0.0,0.0,7
17868.195,34923.104999999996,-2726.955,-13320.18,0.0,0.0,0.0,0.0,7
18114.795,35162.729999999996,-2712.87,-13238.64,0.0,0.0,0.0,0.0,7
18454.23,35426.385,-2649.69,-13118.22,0.0,0.0,0.0,0.0,7
18642.87,35554.994999999995,-2616.0299999999997,-13045.095,0.0,0.0,0.0,0.0,7
18567.0,35492.85,-2617.875,-13059.45,0.0,0.0,0.0,0.0,7
18333.495,35292.645,-2616.8399999999997,-13112.37,0.0,0.0,0.0,0.0,7
18124.335,35053.695,-2589.075,-13155.03,0.0,0.0,0.0,0.0,7
17905.184999999998,34891.065,-2605.095,-13214.655,0.0,0.0,0.0,0.0,7
17829.63,34875.81,-2664.27,-13275.315,0.0,0.0,0.0,0.0,7
18010.89,35028.045,-2722.9049999999997,-13277.205,0.0,0.0,0.0,0.0,7
18328.545,35259.659999999996,-2677.275,-13162.365,0.0,0.0,0.0,0.0,7
18561.105,35448.435,-2651.895,-13102.92,0.0,0.0,0.0,0.0,7
18530.73,35469.585,-2667.87,-13117.005,0.0,0.0,0.0,0.0,7
18377.235,35338.14,-2617.2,-13099.275,0.0,0.0,0.0,0.0,7
18158.4,35096.715,-2540.79,-13081.23,0.0,0.0,0.0,0.0,7
17945.774999999998,34854.255,-2525.4449999999997,-13124.25,0.0,0.0,0.0,0.0,7
17849.969999999998,34777.26,-2592.54,-13219.02,0.0,0.0,0.0,0.0,7
17986.5,34884.674999999996,-2641.77,-13233.69,0.0,0.0,0.0,0.0,7
18228.51,35111.07,-2672.505,-13201.695,0.0,0.0,0.0,0.0,7
18450.225,35318.744999999995,-2710.5299999999997,-13174.02,0.0,0.0,0.0,0.0,7
18522.81,35397.18,-2717.775,-13156.425,0.0,0.0,0.0,0.0,7
18405.72,35309.385,-2656.98,-13115.205,0.0,0.0,0.0,0.0,7
18180.72,35109.27,-2583.72,-13100.67,0.0,0.0,0.0,0.0,7
17944.38,34899.435,-2578.9049999999997,-13153.725,0.0,0.0,0.0,0.0,7
17760.329999999998,34793.82,-2628.495,-13235.445,0.0,0.0,0.0,0.0,7
17834.94,34843.68,-2666.745,-13240.44,0.0,0.0,0.0,0.0,7
18071.865,35031.96,-2716.02,-13239.855,0.0,0.0,0.0,0.0,7
18275.355,35255.295,-2765.52,-13226.175,0.0,0.0,0.0,0.0,7
18502.65,35406.585,-2668.68,-13107.42,0.0,0.0,0.0,0.0,7
18470.34,35370.135,-2598.21,-13049.145,0.0,0.0,0.0,0.0,7
18257.4,35169.659999999996,-2572.875,-13071.015,0.0,0.0,0.0,0.0,7
18003.735,34926.57,-2576.295,-13141.71,0.0,0.0,0.0,0.0,7
17784.675,34769.25,-2578.14,-13198.23,0.0,0.0,0.0,0.0,7
17765.235,34780.005,-2637.99,-13259.385,0.0,0.0,0.0,0.0,7
17929.125,34964.64,-2714.04,-13270.41,0.0,0.0,0.0,0.0,7
18186.435,35202.78,-2731.095,-13212.405,0.0,0.0,0.0,0.0,7
18398.34,35366.13,-2708.415,-13148.055,0.0,0.0,0.0,0.0,7
18422.19,35375.4,-2665.395,-13109.985,0.0,0.0,0.0,0.0,7
18300.78,35217.585,-2581.9649999999997,-13071.555,0.0,0.0,0.0,0.0,7
18070.515,34983.9,-2549.3399999999997,-13093.245,0.0,0.0,0.0,0.0,7
17833.454999999998,34789.994999999995,-2561.22,-13167.585,0.0,0.0,0.0,0.0,7
17693.145,34742.385,-2638.26,-13260.51,0.0,0.0,0.0,0.0,7
17833.23,34866.45,-2702.43,-13283.865,0.0,0.0,0.0,0.0,7
18091.89,35106.435,-2751.615,-13262.085,0.0,0.0,0.0,0.0,7
18277.515,35327.97,-2754.54,-13199.805,0.0,0.0,0.0,0.0,7
18375.705,35409.42,-2680.47,-13114.755,0.0,0.0,0.0,0.0,7
18307.935,35296.83,-2620.305,-13090.815,0.0,0.0,0.0,0.0,7
18079.38,35051.76,-2586.87,-13118.67,0.0,0.0,0.0,0.0,7
17836.11,34821.405,-2563.6949999999997,-13145.445,0.0,0.0,0.0,0.0,7
17663.085,34717.455,-2597.13,-13206.015,0.0,0.0,0.0,0.0,7
17757.945,34771.545,-2638.35,-13244.715,0.0,0.0,0.0,0.0,7
17986.995,34963.424999999996,-2718.315,-13256.82,0.0,0.0,0.0,0.0,7
18242.505,35177.04,-2742.66,-13218.03,0.0,0.0,0.0,0.0,7
18356.22,35285.31,-2703.015,-13146.48,0.0,0.0,0.0,0.0,7
18283.815,35227.395,-2630.475,-13086.495,0.0,0.0,0.0,0.0,7
18135.36,35042.445,-2547.855,-13063.59,0.0,0.0,0.0,0.0,7
17900.73,34826.174999999996,-2543.49,-13125.105,0.0,0.0,0.0,0.0,7
17646.48,34674.165,-2611.98,-13233.51,0.0,0.0,0.0,0.0,7
17648.145,34700.534999999996,-2667.7799999999997,-13279.77,0.0,0.0,0.0,0.0,7
17850.105,34932.465,-2705.9849999999997,-13259.385,0.0,0.0,0.0,0.0,7
18068.04,35276.58,-2760.8399999999997,-13241.79,0.0,0.0,0.0,0.0,7
18241.695,35456.22,-2757.51,-13185.27,0.0,0.0,0.0,0.0,7
18250.38,35444.924999999996,-2707.02,-13144.05,0.0,0.0,0.0,0.0,7
18156.51,35270.369999999995,-2602.62,-13091.4,0.0,0.0,0.0,0.0,7
17963.235,35021.52,-2530.575,-13085.19,0.0,0.0,0.0,0.0,7
17653.32,34828.92,-2592.63,-13195.35,0.0,0.0,0.0,0.0,7
17534.204999999998,34780.77,-2692.5299999999997,-13306.14,0.0,0.0,0.0,0.0,7
17685.855,34912.485,-2745.495,-13321.665,0.0,0.0,0.0,0.0,7
17931.645,35135.369999999995,-2775.015,-13269.555,0.0,0.0,0.0,0.0,7
18152.955,35333.145,-2778.615,-13219.965,0.0,0.0,0.0,0.0,7
18265.545,35387.595,-2671.47,-13117.725,0.0,0.0,0.0,0.0,7
18170.91,35226.63,-2604.105,-13095.81,0.0,0.0,0.0,0.0,7
17962.739999999998,34974.72,-2556.63,-13104.18,0.0,0.0,0.0,0.0,7
17716.77,34761.735,-2562.345,-13169.205,0.0,0.0,0.0,0.0,7
17541.855,34661.744999999995,-2631.69,-13254.48,0.0,0.0,0.0,0.0,7
17627.985,34750.034999999996,-2708.595,-13293.045,0.0,0.0,0.0,0.0,7
17877.059999999998,34980.57,-2743.47,-13271.22,0.0,0.0,0.0,0.0,7
18110.835,35210.475,-2750.58,-13216.23,0.0,0.0,0.0,0.0,7
18268.11,35333.82,-2683.08,-13123.53,0.0,0.0,0.0,0.0,7
18179.28,35276.085,-2641.77,-13102.515,0.0,0.0,0.0,0.0,7
17959.005,35078.534999999996,-2605.14,-13122.765,0.0,0.0,0.0,0.0,7
17692.065,34845.345,-2617.6949999999997,-13191.975,0.0,0.0,0.0,0.0,7
17506.575,34692.93,-2645.2799999999997,-13265.055,0.0,0.0,0.0,0.0,7
17582.715,34699.365,-2636.415,-13248.72,0.0,0.0,0.0,0.0,7
17774.82,34888.77,-2702.61,-13258.89,0.0,0.0,0.0,0.0,7
17988.434999999998,35117.235,-2782.575,-13265.415,0.0,0.0,0.0,0.0,7
18102.105,35274.869999999995,-2805.255,-13221.63,0.0,0.0,0.0,0.0,7
18147.285,35270.46,-2683.89,-13128.345,0.0,0.0,0.0,0.0,7
17995.995,35081.369999999995,-2579.58,-13081.455,0.0,0.0,0.0,0.0,7
17780.265,34832.475,-2551.275,-13116.51,0.0,0.0,0.0,0.0,7
17602.965,34635.96,-2565.9,-13189.32,0.0,0.0,0.0,0.0,7
17594.1,34592.67,-2584.08,-13220.775,0.0,0.0,0.0,0.0,7
17732.16,34731.674999999996,-2646.18,-13234.995,0.0,0.0,0.0,0.0,7
17907.434999999998,34950.96,-2729.3399999999997,-13234.905,0.0,0.0,0.0,0.0,7
18075.105,35123.49,-2759.94,-13203.045,0.0,0.0,0.0,0.0,7
18132.975,35169.03,-2686.455,-13126.815,0.0,0.0,0.0,0.0,7
18040.86,35041.275,-2594.16,-13083.345,0.0,0.0,0.0,0.0,7
17821.35,34819.47,-2570.805,-13116.285,0.0,0.0,0.0,0.0,7
17577.0,34625.34,-2598.075,-13188.69,0.0,0.0,0.0,0.0,7
17451.27,34552.26,-2644.92,-13269.42,0.0,0.0,0.0,0.0,7
17528.67,34638.525,-2707.065,-13287.465,0.0,0.0,0.0,0.0,7
17806.635,34832.159999999996,-2700.18,-13227.165,0.0,0.0,0.0,0.0,7
18056.97,35041.005,-2698.605,-13183.155,0.0,0.0,0.0,0.0,7
18148.545,35136.18,-2671.47,-13132.98,0.0,0.0,0.0,0.0,7
18062.055,35054.055,-2625.255,-13096.665,0.0,0.0,0.0,0.0,7
17846.505,34843.59,-2604.285,-13123.35,0.0,0.0,0.0,0.0,7
17584.425,34622.865,-2610.495,-13175.685,0.0,0.0,0.0,0.0,7
17388.945,34502.13,-2639.475,-13252.005,0.0,0.0,0.0,0.0,7
17429.715,34555.185,-2694.69,-13290.57,0.0,0.0,0.0,0.0,7
17631.855,34748.595,-2760.705,-13291.47,0.0,0.0,0.0,0.0,7
17884.035,34980.795,-2771.37,-13240.08,0.0,0.0,0.0,0.0,7
18084.69,35125.244999999995,-2720.745,-13164.435,0.0,0.0,0.0,0.0,7
18051.525,35079.975,-2697.2999999999997,-13152.78,0.0,0.0,0.0,0.0,7
17890.605,34882.784999999996,-2618.145,-13122.045,0.0,0.0,0.0,0.0,7
17635.635,34667.595,-2595.285,-13163.67,0.0,0.0,0.0,0.0,7
17409.329999999998,34516.799999999996,-2639.97,-13266.0,0.0,0.0,0.0,0.0,7
17370.72,34550.415,-2664.765,-13285.395,0.0,0.0,0.0,0.0,7
17553.645,34804.53,-2721.33,-13295.7,0.0,0.0,0.0,0.0,7
17766.405,35045.369999999995,-2763.315,-13254.165,0.0,0.0,0.0,0.0,7
17996.895,35214.435,-2745.18,-13190.805,0.0,0.0,0.0,0.0,7
18047.655,35219.159999999996,-2707.83,-13144.365,0.0,0.0,0.0,0.0,7
17876.34,35057.655,-2656.17,-13141.305,0.0,0.0,0.0,0.0,7
17644.274999999998,34813.935,-2603.61,-13176.72,0.0,0.0,0.0,0.0,7
17387.595,34615.08,-2601.045,-13213.935,0.0,0.0,0.0,0.0,7
17312.76,34542.405,-2656.575,-13278.15,0.0,0.0,0.0,0.0,7
17521.785,34654.5,-2630.97,-13209.03,0.0,0.0,0.0,0.0,7
17739.36,34872.299999999996,-2700.495,-13215.735,0.0,0.0,0.0,0.0,7
17912.295,35057.97,-2763.315,-13229.28,0.0,0.0,0.0,0.0,7
17974.26,35105.445,-2737.08,-13182.435,0.0,0.0,0.0,0.0,7
17895.375,35000.235,-2671.515,-13139.01,0.0,0.0,0.0,0.0,7
17691.524999999998,34790.085,-2623.77,-13150.305,0.0,0.0,0.0,0.0,7
17461.44,34565.22,-2598.255,-13193.415,0.0,0.0,0.0,0.0,7
17281.845,34429.455,-2637.4049999999997,-13263.48,0.0,0.0,0.0,0.0,7
17341.425,34472.565,-2694.735,-13293.99,0.0,0.0,0.0,0.0,7
17542.079999999998,34688.159999999996,-2774.205,-13308.345,0.0,0.0,0.0,0.0,7
17772.885,34907.805,-2806.29,-13271.4,0.0,0.0,0.0,0.0,7
17963.055,35033.31,-2742.795,-13179.645,0.0,0.0,0.0,0.0,7
17966.925,35002.17,-2665.035,-13134.69,0.0,0.0,0.0,0.0,7
17760.015,34813.799999999996,-2608.335,-13122.405,0.0,0.0,0.0,0.0,7
17555.309999999998,34563.284999999996,-2546.01,-13131.18,0.0,0.0,0.0,0.0,7
17318.295,34383.96,-2594.25,-13215.375,0.0,0.0,0.0,0.0,7
17285.175,34373.025,-2667.1949999999997,-13281.615,0.0,0.0,0.0,0.0,7
17478.989999999998,34536.195,-2722.185,-13288.59,0.0,0.0,0.0,0.0,7
17726.67,34761.195,-2735.505,-13240.125,0.0,0.0,0.0,0.0,7
17939.43,34937.415,-2702.7,-13168.44,0.0,0.0,0.0,0.0,7
17950.454999999998,34944.075,-2661.93,-13142.34,0.0,0.0,0.0,0.0,7
17775.36,34772.76,-2614.005,-13124.25,0.0,0.0,0.0,0.0,7
17559.09,34545.104999999996,-2576.52,-13133.475,0.0,0.0,0.0,0.0,7
17332.559999999998,34376.49,-2571.66,-13180.815,0.0,0.0,0.0,0.0,7
17185.454999999998,34311.15,-2663.685,-13280.715,0.0,0.0,0.0,0.0,7
17309.61,34439.445,-2746.35,-13320.945,0.0,0.0,0.0,0.0,7
17596.395,34682.85,-2747.115,-13257.63,0.0,0.0,0.0,0.0,7
17866.62,34884.36,-2717.2799999999997,-13173.57,0.0,0.0,0.0,0.0,7
17942.355,34939.935,-2686.0499999999997,-13128.12,0.0,0.0,0.0,0.0,7
17786.745,34826.13,-2677.095,-13152.51,0.0,0.0,0.0,0.0,7
17539.559999999998,34586.955,-2674.62,-13213.665,0.0,0.0,0.0,0.0,7
17348.805,34379.865,-2635.29,-13232.295,0.0,0.0,0.0,0.0,7
17203.32,34296.299999999996,-2614.41,-13245.93,0.0,0.0,0.0,0.0,7
17287.515,34366.59,-2676.645,-13283.505,0.0,0.0,0.0,0.0,7
17524.755,34587.854999999996,-2719.305,-13258.395,0.0,0.0,0.0,0.0,7
17717.175,34821.81,-2760.615,-13233.87,0.0,0.0,0.0,0.0,7
17837.37,34944.165,-2753.8199999999997,-13204.215,0.0,0.0,0.0,0.0,7
17760.465,34898.31,-2693.9249999999997,-13166.37,0.0,0.0,0.0,0.0,7
17573.445,34714.395,-2623.77,-13144.995,0.0,0.0,0.0,0.0,7
17383.77,34505.369999999995,-2591.595,-13176.495,0.0,0.0,0.0,0.0,7
17177.67,34348.32,-2631.015,-13261.095,0.0,0.0,0.0,0.0,7
17164.71,34337.385,-2682.315,-13299.84,0.0,0.0,0.0,0.0,7
17378.46,34505.909999999996,-2723.49,-13287.87,0.0,0.0,0.0,0.0,7
17622.045,34736.534999999996,-2762.595,-13255.65,0.0,0.0,0.0,0.0,7
17789.805,34911.585,-2766.1949999999997,-13210.065,0.0,0.0,0.0,0.0,7
17791.425,34908.255,-2713.5899999999997,-13169.295,0.0,0.0,0.0,0.0,7
17650.665,34733.52,-2647.125,-13157.595,0.0,0.0,0.0,0.0,7
17472.195,34513.244999999995,-2574.18,-13153.275,0.0,0.0,0.0,0.0,7
17246.34,34348.365,-2566.2149999999997,-13194.9,0.0,0.0,0.0,0.0,7
17151.57,34318.845,-2625.255,-13259.52,0.0,0.0,0.0,0.0,7
17247.555,34460.82,-2721.33,-13307.94,0.0,0.0,0.0,0.0,7
17453.655,34692.255,-2801.3399999999997,-13306.59,0.0,0.0,0.0,0.0,7
17720.145,34888.905,-2759.4449999999997,-13210.155,0.0,0.0,0.0,0.0,7
17793.585,34934.805,-2707.4249999999997,-13157.505,0.0,0.0,0.0,0.0,7
17625.87,34793.1,-2696.22,-13181.76,0.0,0.0,0.0,0.0,7
17425.62,34548.479999999996,-2628.0899999999997,-13182.885,0.0,0.0,0.0,0.0,7
17223.704999999998,34326.63,-2588.265,-13203.27,0.0,0.0,0.0,0.0,7
17054.235,34247.159999999996,-2661.075,-13298.49,0.0,0.0,0.0,0.0,7
17149.32,34345.17,-2719.395,-13323.6,0.0,0.0,0.0,0.0,7
17393.625,34566.39,-2761.875,-13306.995,0.0,0.0,0.0,0.0,7
17628.255,34777.17,-2761.1099999999997,-13239.99,0.0,0.0,0.0,0.0,7
17730.809999999998,34886.61,-2740.5,-13189.545,0.0,0.0,0.0,0.0,7
17686.485,34819.47,-2682.0899999999997,-13165.74,0.0,0.0,0.0,0.0,7
17528.715,34630.83,-2610.135,-13164.03,0.0,0.0,0.0,0.0,7
17254.079999999998,34416.81,-2601.9449999999997,-13207.455,0.0,0.0,0.0,0.0,7
17024.895,34299.045,-2644.02,-13274.73,0.0,0.0,0.0,0.0,7
17105.85,34337.924999999996,-2668.545,-13289.445,0.0,0.0,0.0,0.0,7
17253.0,34509.24,-2747.88,-13293.45,0.0,0.0,0.0,0.0,7
17521.965,34720.56,-2781.99,-13262.94,0.0,0.0,0.0,0.0,7
17723.745,34865.01,-2733.255,-13180.545,0.0,0.0,0.0,0.0,7
17682.434999999998,34825.095,-2697.12,-13158.72,0.0,0.0,0.0,0.0,7
17502.255,34617.78,-2641.545,-13155.525,0.0,0.0,0.0,0.0,7
17274.195,34377.255,-2615.13,-13190.085,0.0,0.0,0.0,0.0,7
17059.364999999998,34216.56,-2613.24,-13241.475,0.0,0.0,0.0,0.0,7
17006.805,34180.065,-2655.4049999999997,-13286.34,0.0,0.0,0.0,0.0,7
17172.0,34324.155,-2728.665,-13310.865,0.0,0.0,0.0,0.0,7
17412.3,34565.85,-2770.74,-13281.3,0.0,0.0,0.0,0.0,7
17635.68,34773.84,-2768.85,-13227.615,0.0,0.0,0.0,0.0,7
17715.465,34808.985,-2709.765,-13167.72,0.0,0.0,0.0,0.0,7
17590.905,34673.354999999996,-2679.795,-13190.265,0.0,0.0,0.0,0.0,7
17301.825,34439.085,-2629.485,-13183.74,0.0,0.0,0.0,0.0,7
17030.114999999998,34235.28,-2641.9049999999997,-13247.19,0.0,0.0,0.0,0.0,7
16948.44,34156.034999999996,-2659.815,-13301.46,0.0,0.0,0.0,0.0,7
17077.005,34255.53,-2712.015,-13315.905,0.0,0.0,0.0,0.0,7
17282.61,34474.545,-2776.68,-13308.705,0.0,0.0,0.0,0.0,7
17546.579999999998,34682.805,-2767.815,-13233.465,0.0,0.0,0.0,0.0,7
17715.285,34776.18,-2670.345,-13122.45,0.0,0.0,0.0,0.0,7
17640.045,34701.39,-2600.145,-13078.935,0.0,0.0,0.0,0.0,7
17417.565,34485.615,-2568.4649999999997,-13107.015,0.0,0.0,0.0,0.0,7
17098.11,34270.965,-2624.94,-13222.71,0.0,0.0,0.0,0.0,7
16859.475,34156.215,-2722.5899999999997,-13354.56,0.0,0.0,0.0,0.0,7
16940.97,34190.729999999996,-2749.455,-13357.62,0.0,0.0,0.0,0.0,7
17176.454999999998,34383.15,-2783.115,-13336.155,0.0,0.0,0.0,0.0,7
17427.735,34616.385,-2796.615,-13282.605,0.0,0.0,0.0,0.0,7
17641.125,34779.645,-2722.5,-13184.865,0.0,0.0,0.0,0.0,7
17625.015,34755.795,-2625.8399999999997,-13098.87,0.0,0.0,0.0,0.0,7
17387.684999999998,34552.935,-2608.02,-13123.89,0.0,0.0,0.0,0.0,7
17175.285,34308.36,-2581.245,-13170.06,0.0,0.0,0.0,0.0,7
16972.965,34142.58,-2574.495,-13203.225,0.0,0.0,0.0,0.0,7
16943.76,34133.22,-2650.455,-13275.9,0.0,0.0,0.0,0.0,7
17069.805,34277.534999999996,-2755.935,-13319.145,0.0,0.0,0.0,0.0,7
17278.829999999998,34483.815,-2848.8599999999997,-13342.59,0.0,0.0,0.0,0.0,7
17522.684999999998,34658.909999999996,-2798.73,-13253.895,0.0,0.0,0.0,0.0,7
17547.885,34676.46,-2725.56,-13183.155,0.0,0.0,0.0,0.0,7
17422.875,34516.665,-2657.025,-13155.165,0.0,0.0,0.0,0.0,7
17222.535,34267.005,-2588.94,-13149.855,0.0,0.0,0.0,0.0,7
16964.684999999998,34056.72,-2635.245,-13256.91,0.0,0.0,0.0,0.0,7
16819.29,33984.494999999995,-2721.555,-13355.64,0.0,0.0,0.0,0.0,7
16953.795,34096.725,-2764.08,-13360.455,0.0,0.0,0.0,0.0,7
17241.93,34334.955,-2732.04,-13260.195,0.0,0.0,0.0,0.0,7
17498.024999999998,34552.71,-2745.27,-13228.38,0.0,0.0,0.0,0.0,7
17522.64,34614.494999999995,-2761.065,-13206.87,0.0,0.0,0.0,0.0,7
17438.805,34506.405,-2677.95,-13158.225,0.0,0.0,0.0,0.0,7
17277.21,34293.42,-2551.41,-13090.365,0.0,0.0,0.0,0.0,7
17024.399999999998,34076.52,-2561.04,-13163.13,0.0,0.0,0.0,0.0,7
16815.825,33950.205,-2659.545,-13303.98,0.0,0.0,0.0,0.0,7
16908.75,33984.63,-2703.7799999999997,-13322.97,0.0,0.0,0.0,0.0,7
17151.524999999998,34134.795,-2740.005,-13298.94,0.0,0.0,0.0,0.0,7
17367.03,34336.305,-2763.855,-13259.925,0.0,0.0,0.0,0.0,7
17537.67,34455.78,-2728.89,-13191.84,0.0,0.0,0.0,0.0,7
17518.905,34426.979999999996,-2655.63,-13140.27,0.0,0.0,0.0,0.0,7
17333.01,34246.17,-2618.37,-13157.415,0.0,0.0,0.0,0.0,7
17041.364999999998,34012.305,-2595.69,-13181.22,0.0,0.0,0.0,0.0,7
16801.335,33872.534999999996,-2634.975,-13261.86,0.0,0.0,0.0,0.0,7
16810.02,33891.57,-2691.765,-13316.805,0.0,0.0,0.0,0.0,7
17031.555,34076.385,-2732.085,-13304.79,0.0,0.0,0.0,0.0,7
17272.71,34319.43,-2766.1949999999997,-13264.56,0.0,0.0,0.0,0.0,7
17488.755,34495.695,-2728.26,-13187.655,0.0,0.0,0.0,0.0,7
17468.46,34500.735,-2693.6549999999997,-13157.145,0.0,0.0,0.0,0.0,7
17259.795,34357.86,-2682.0899999999997,-13184.595,0.0,0.0,0.0,0.0,7
17031.645,34131.735,-2649.285,-13217.265,0.0,0.0,0.0,0.0,7
16839.495,33944.174999999996,-2634.885,-13267.44,0.0,0.0,0.0,0.0,7
16774.559999999998,33892.604999999996,-2677.185,-13320.54,0.0,0.0,0.0,0.0,7
11307.15,23971.275,-3010.3199999999997,-13263.885,0.0,0.0,0.0,0.0,7
12114.54,22086.9,-1943.595,-12286.71,0.0,0.0,0.0,0.0,7
11864.43,21901.77,-2233.62,-12527.865,0.0,0.0,0.0,0.0,7
10427.13,24235.83,-3994.965,-14128.965,0.0,0.0,0.0,0.0,7
9814.185,26075.61,-4990.59,-15004.98,0.0,0.0,0.0,0.0,7
9445.005,27360.675,-5626.844999999999,-15573.375,0.0,0.0,0.0,0.0,7
9463.995,27766.845,-5573.7,-15540.12,0.0,0.0,0.0,0.0,7
10481.535,26096.895,-4294.44,-14393.52,0.0,0.0,0.0,0.0,7
11054.655,24512.129999999997,-3337.47,-13550.49,0.0,0.0,0.0,0.0,7
11904.255,22617.72,-2184.705,-12506.895,0.0,0.0,0.0,0.0,7
12101.49,21694.095,-1949.715,-12278.385,0.0,0.0,0.0,0.0,7
10826.28,23467.815,-3462.12,-13639.635,0.0,0.0,0.0,0.0,7
9881.01,25746.254999999997,-4813.065,-14851.08,0.0,0.0,0.0,0.0,7
9578.25,27083.295,-5465.16,-15429.105,0.0,0.0,0.0,0.0,7
9263.88,28031.039999999997,-5803.38,-15748.605,0.0,0.0,0.0,0.0,7
10141.02,26854.11,-4742.325,-14800.59,0.0,0.0,0.0,0.0,7
10912.815,25045.29,-3609.36,-13792.905,0.0,0.0,0.0,0.0,7
11645.19,23279.985,-2521.935,-12814.92,0.0,0.0,0.0,0.0,7
12213.585,21786.345,-1822.185,-12169.08,0.0,0.0,0.0,0.0,7
11339.235,22743.9,-2869.605,-13108.05,0.0,0.0,0.0,0.0,7
10006.83,25278.12,-4552.335,-14616.45,0.0,0.0,0.0,0.0,7
9673.695,26733.96,-5285.295,-15265.53,0.0,0.0,0.0,0.0,7
9225.855,27979.605,-5861.835,-15789.51,0.0,0.0,0.0,0.0,7
9783.405,27448.785,-5181.389999999999,-15188.85,0.0,0.0,0.0,0.0,7
10761.48,25480.125,-3874.77,-14021.415,0.0,0.0,0.0,0.0,7
11366.775,23860.845,-2896.74,-13155.57,0.0,0.0,0.0,0.0,7
12163.41,22009.095,-1882.26,-12226.995,0.0,0.0,0.0,0.0,7
11758.005,22077.72,-2360.115,-12643.065,0.0,0.0,0.0,0.0,7
10288.845,24528.555,-4148.325,-14262.255,0.0,0.0,0.0,0.0,7
9766.845,26301.105,-5090.175,-15093.72,0.0,0.0,0.0,0.0,7
9312.57,27682.47,-5776.83,-15709.005,0.0,0.0,0.0,0.0,7
9429.975,27947.07,-5596.245,-15566.49,0.0,0.0,0.0,0.0,7
10540.08,26087.985,-4215.24,-14326.695,0.0,0.0,0.0,0.0,7
11124.72,24447.69,-3245.355,-13468.995,0.0,0.0,0.0,0.0,7
12001.005,22494.96,-2090.9249999999997,-12422.52,0.0,0.0,0.0,0.0,7
12063.825,21760.425,-2009.25,-12331.305,0.0,0.0,0.0,0.0,7
10727.91,23717.7,-3618.99,-13790.745,0.0,0.0,0.0,0.0,7
9849.78,25886.655,-4888.304999999999,-14918.535,0.0,0.0,0.0,0.0,7
9461.61,27268.245,-5591.655,-15538.59,0.0,0.0,0.0,0.0,7
9201.06,28157.4,-5866.965,-15805.62,0.0,0.0,0.0,0.0,7
10219.77,26725.23,-4647.105,-14711.805,0.0,0.0,0.0,0.0,7
10952.82,24893.415,-3526.6949999999997,-13710.06,0.0,0.0,0.0,0.0,7
11745.855,23061.69,-2402.8199999999997,-12701.745,0.0,0.0,0.0,0.0,7
12214.125,21703.23,-1827.99,-12169.17,0.0,0.0,0.0,0.0,7
11194.83,22904.235,-3024.0899999999997,-13242.285,0.0,0.0,0.0,0.0,7
9954.99,25426.305,-4651.74,-14710.77,0.0,0.0,0.0,0.0,7
9611.28,26892.495,-5381.099999999999,-15349.05,0.0,0.0,0.0,0.0,7
9134.055,28162.26,-5962.05,-15885.315,0.0,0.0,0.0,0.0,7
9812.52,27424.26,-5136.66,-15149.745,0.0,0.0,0.0,0.0,7
10791.135,25406.865,-3809.88,-13958.865,0.0,0.0,0.0,0.0,7
11464.065,23699.565,-2773.62,-13035.51,0.0,0.0,0.0,0.0,7
12234.69,21874.185,-1811.295,-12153.33,0.0,0.0,0.0,0.0,7
11689.245,22196.205,-2460.24,-12730.005,0.0,0.0,0.0,0.0,7
10204.65,24781.635,-4286.07,-14383.89,0.0,0.0,0.0,0.0,7
9709.605,26537.31,-5200.92,-15194.475,0.0,0.0,0.0,0.0,7
9170.91,27969.435,-5922.63,-15840.27,0.0,0.0,0.0,0.0,7
9410.535,28036.71,-5599.755,-15565.095,0.0,0.0,0.0,0.0,7
10595.16,26017.379999999997,-4131.9,-14245.47,0.0,0.0,0.0,0.0,7
11243.745,24272.82,-3111.48,-13341.645,0.0,0.0,0.0,0.0,7
12151.98,22250.205,-1937.07,-12274.56,0.0,0.0,0.0,0.0,7
12084.57,21706.605,-2007.765,-12322.485,0.0,0.0,0.0,0.0,7
10605.465,23905.17,-3747.6,-13895.505,0.0,0.0,0.0,0.0,7
9771.57,26072.01,-4984.335,-14999.58,0.0,0.0,0.0,0.0,7
9296.46,27583.695,-5772.195,-15704.235,0.0,0.0,0.0,0.0,7
9105.39,28379.07,-5947.965,-15879.6,0.0,0.0,0.0,0.0,7
10266.84,26687.565,-4567.679999999999,-14634.63,0.0,0.0,0.0,0.0,7
11065.86,24753.285,-3397.8599999999997,-13599.855,0.0,0.0,0.0,0.0,7
11982.96,22723.155,-2162.88,-12484.305,0.0,0.0,0.0,0.0,7
12343.41,21439.08,-1691.91,-12031.02,0.0,0.0,0.0,0.0,7
11160.585,22894.155,-3072.285,-13273.74,0.0,0.0,0.0,0.0,7
9895.86,25500.375,-4728.465,-14770.98,0.0,0.0,0.0,0.0,7
9495.945,27052.785,-5511.915,-15466.815,0.0,0.0,0.0,0.0,7
9040.185,28300.815,-6038.82,-15956.28,0.0,0.0,0.0,0.0,7
9898.2,27314.145,-5041.9349999999995,-15066.315,0.0,0.0,0.0,0.0,7
10895.04,25234.605,-3690.945,-13859.82,0.0,0.0,0.0,0.0,7
11692.17,23338.035,-2516.67,-12806.55,0.0,0.0,0.0,0.0,7
12451.275,21500.505,-1583.685,-11945.79,0.0,0.0,0.0,0.0,7
11739.195,22061.385,-2412.99,-12683.655,0.0,0.0,0.0,0.0,7
10151.37,24822.495,-4346.955,-14434.335,0.0,0.0,0.0,0.0,7
9639.225,26610.03,-5274.405,-15259.05,0.0,0.0,0.0,0.0,7
9132.525,28008.405,-5956.2,-15878.79,0.0,0.0,0.0,0.0,7
9517.905,27830.745,-5468.76,-15450.03,0.0,0.0,0.0,0.0,7
10689.03,25751.385,-4001.085,-14132.34,0.0,0.0,0.0,0.0,7
11408.355,23947.065,-2907.225,-13159.08,0.0,0.0,0.0,0.0,7
12400.155,21795.795,-1668.825,-12027.645,0.0,0.0,0.0,0.0,7
12167.55,21472.11,-1922.4,-12241.71,0.0,0.0,0.0,0.0,7
10551.51,23917.77,-3816.63,-13956.435,0.0,0.0,0.0,0.0,7
9733.995,26134.02,-5051.5199999999995,-15062.895,0.0,0.0,0.0,0.0,7
9290.565,27604.935,-5770.17,-15704.865,0.0,0.0,0.0,0.0,7
9236.115,28180.035,-5802.75,-15753.51,0.0,0.0,0.0,0.0,7
10407.33,26392.995,-4402.889999999999,-14495.67,0.0,0.0,0.0,0.0,7
11145.465,24533.055,-3273.345,-13486.77,0.0,0.0,0.0,0.0,7
12187.62,22334.715,-1929.51,-12267.405,0.0,0.0,0.0,0.0,7
12462.39,21210.12,-1591.065,-11942.19,0.0,0.0,0.0,0.0,7
11123.19,22960.98,-3143.295,-13344.615,0.0,0.0,0.0,0.0,7
9843.48,25650.81,-4812.974999999999,-14851.935,0.0,0.0,0.0,0.0,7
9445.41,27187.875,-5569.514999999999,-15520.14,0.0,0.0,0.0,0.0,7
9083.61,28288.215,-5985.495,-15909.975,0.0,0.0,0.0,0.0,7
10020.33,27108.09,-4878.495,-14917.905,0.0,0.0,0.0,0.0,7
10937.07,25102.215,-3598.245,-13774.365,0.0,0.0,0.0,0.0,7
11856.015,23086.08,-2333.97,-12635.595,0.0,0.0,0.0,0.0,7
12549.15,21314.97,-1488.06,-11851.29,0.0,0.0,0.0,0.0,7
11672.145,22126.14,-2506.23,-12763.53,0.0,0.0,0.0,0.0,7
10085.31,24971.805,-4456.755,-14531.445,0.0,0.0,0.0,0.0,7
9612.09,26733.195,-5353.425,-15330.735,0.0,0.0,0.0,0.0,7
9087.12,28139.805,-6012.54,-15934.095,0.0,0.0,0.0,0.0,7
9589.41,27757.26,-5376.285,-15365.565,0.0,0.0,0.0,0.0,7
10751.625,25619.129999999997,-3902.49,-14040.855,0.0,0.0,0.0,0.0,7
11539.035,23732.504999999997,-2753.73,-13016.07,0.0,0.0,0.0,0.0,7
12533.985,21548.835,-1528.47,-11891.475,0.0,0.0,0.0,0.0,7
12199.23,21440.745,-1929.87,-12244.5,0.0,0.0,0.0,0.0,7
10493.055,24108.03,-3930.705,-14055.21,0.0,0.0,0.0,0.0,7
9705.42,26320.905,-5147.28,-15150.78,0.0,0.0,0.0,0.0,7
9171.81,27836.91,-5889.51,-15802.47,0.0,0.0,0.0,0.0,7
9234.81,28241.504999999997,-5779.844999999999,-15720.84,0.0,0.0,0.0,0.0,7
10488.42,26288.64,-4294.889999999999,-14390.1,0.0,0.0,0.0,0.0,7
11267.91,24371.91,-3141.315,-13366.755,0.0,0.0,0.0,0.0,7
12388.185,22065.84,-1747.53,-12098.88,0.0,0.0,0.0,0.0,7
12537.36,21117.51,-1565.325,-11915.73,0.0,0.0,0.0,0.0,7
10997.955,23126.625,-3274.92,-13446.585,0.0,0.0,0.0,0.0,7
9783.945,25823.115,-4907.745,-14927.85,0.0,0.0,0.0,0.0,7
9333.36,27402.795,-5693.219999999999,-15623.865,0.0,0.0,0.0,0.0,7
9027.045,28427.31,-6038.55,-15956.64,0.0,0.0,0.0,0.0,7
10098.27,27016.02,-4789.485,-14833.62,0.0,0.0,0.0,0.0,7
11031.345,24954.435,-3484.395,-13669.29,0.0,0.0,0.0,0.0,7
12029.67,22797.09,-2144.745,-12457.62,0.0,0.0,0.0,0.0,7
12631.005,21145.68,-1411.83,-11771.955,0.0,0.0,0.0,0.0,7
11597.49,22241.205,-2609.595,-12849.975,0.0,0.0,0.0,0.0,7
9997.425,25181.1,-4566.6449999999995,-14623.74,0.0,0.0,0.0,0.0,7
9506.52,26954.37,-5457.599999999999,-15417.72,0.0,0.0,0.0,0.0,7
8978.355,28384.83,-6108.3,-16018.155,0.0,0.0,0.0,0.0,7
9636.885,27779.895,-5313.24,-15304.545,0.0,0.0,0.0,0.0,7
10802.52,25576.47,-3823.065,-13967.1,0.0,0.0,0.0,0.0,7
11658.33,23581.305,-2609.685,-12880.53,0.0,0.0,0.0,0.0,7
12615.255,21434.49,-1450.125,-11814.21,0.0,0.0,0.0,0.0,7
12124.395,21567.825,-2030.4,-12329.415,0.0,0.0,0.0,0.0,7
10389.915,24364.754999999997,-4087.17,-14198.58,0.0,0.0,0.0,0.0,7
9603.0,26500.004999999997,-5235.03,-15211.125,0.0,0.0,0.0,0.0,7
9048.6,28084.41,-6021.764999999999,-15926.445,0.0,0.0,0.0,0.0,7
9237.555,28319.58,-5775.705,-15724.17,0.0,0.0,0.0,0.0,7
10550.07,26195.625,-4200.48,-14306.04,0.0,0.0,0.0,0.0,7
11336.445,24239.879999999997,-3037.095,-13267.08,0.0,0.0,0.0,0.0,7
12432.78,21928.68,-1669.275,-12020.67,0.0,0.0,0.0,0.0,7
12450.195,21172.905,-1635.48,-11971.71,0.0,0.0,0.0,0.0,7
10873.17,23395.365,-3459.7349999999997,-13621.455,0.0,0.0,0.0,0.0,7
9748.935,25975.8,-4984.065,-14995.8,0.0,0.0,0.0,0.0,7
9228.555,27613.754999999997,-5817.105,-15741.54,0.0,0.0,0.0,0.0,7
8973.449999999999,28571.085,-6080.264999999999,-15999.165,0.0,0.0,0.0,0.0,7
10164.51,26952.84,-4689.54,-14745.87,0.0,0.0,0.0,0.0,7
11089.035,24863.535,-3394.44,-13587.57,0.0,0.0,0.0,0.0,7
12112.56,22668.435,-2050.83,-12372.03,0.0,0.0,0.0,0.0,7
12599.01,21188.97,-1459.215,-11821.905,0.0,0.0,0.0,0.0,7
11414.16,22562.504999999997,-2815.9649999999997,-13038.975,0.0,0.0,0.0,0.0,7
9919.62,25449.93,-4690.98,-14740.155,0.0,0.0,0.0,0.0,7
9410.31,27205.11,-5580.09,-15525.63,0.0,0.0,0.0,0.0,7
8848.89,28661.265,-6227.505,-16126.065,0.0,0.0,0.0,0.0,7
9683.37,27815.625,-5270.804999999999,-15282.9,0.0,0.0,0.0,0.0,7
10878.93,25509.375,-3739.005,-13903.605,0.0,0.0,0.0,0.0,7
11738.25,23478.03,-2498.04,-12777.84,0.0,0.0,0.0,0.0,7
12587.535,21488.76,-1470.15,-11835.18,0.0,0.0,0.0,0.0,7
11909.565,21903.57,-2235.555,-12513.465,0.0,0.0,0.0,0.0,7
10198.845,24763.68,-4273.605,-14360.4,0.0,0.0,0.0,0.0,7
9563.445,26754.21,-5326.74,-15301.53,0.0,0.0,0.0,0.0,7
8962.605,28354.59,-6116.445,-16019.865,0.0,0.0,0.0,0.0,7
9300.735,28350.045,-5710.1849999999995,-15670.125,0.0,0.0,0.0,0.0,7
10611.72,26129.7,-4104.36,-14218.065,0.0,0.0,0.0,0.0,7
11383.83,24191.1,-2952.495,-13190.58,0.0,0.0,0.0,0.0,7
12409.425,21979.26,-1675.53,-12032.595,0.0,0.0,0.0,0.0,7
12253.86,21513.51,-1840.77,-12163.365,0.0,0.0,0.0,0.0,7
10637.505,23896.08,-3724.38,-13866.93,0.0,0.0,0.0,0.0,7
9682.38,26276.94,-5085.135,-15085.395,0.0,0.0,0.0,0.0,7
9117.945,27929.52,-5927.67,-15842.43,0.0,0.0,0.0,0.0,7
8982.404999999999,28704.105,-6063.615,-15988.275,0.0,0.0,0.0,0.0,7
10265.895,26866.935,-4581.495,-14654.43,0.0,0.0,0.0,0.0,7
11139.75,24784.65,-3321.855,-13526.91,0.0,0.0,0.0,0.0,7
12123.585,22612.59,-2009.115,-12334.41,0.0,0.0,0.0,0.0,7
12448.035,21394.98,-1603.71,-11950.335,0.0,0.0,0.0,0.0,7
11177.775,23009.445,-3091.815,-13301.19,0.0,0.0,0.0,0.0,7
9822.6,25734.42,-4811.445,-14847.345,0.0,0.0,0.0,0.0,7
9310.905,27447.615,-5688.764999999999,-15625.935,0.0,0.0,0.0,0.0,7
8833.23,28810.08,-6244.469999999999,-16149.465,0.0,0.0,0.0,0.0,7
9779.49,27774.539999999997,-5142.599999999999,-15160.995,0.0,0.0,0.0,0.0,7
10878.3,25528.68,-3679.605,-13841.91,0.0,0.0,0.0,0.0,7
11750.625,23502.555,-2449.2149999999997,-12739.68,0.0,0.0,0.0,0.0,7
12465.765,21699.72,-1568.16,-11925.315,0.0,0.0,0.0,0.0,7
11659.77,22389.885,-2496.69,-12753.54,0.0,0.0,0.0,0.0,7
10047.78,25226.46,-4458.24,-14534.415,0.0,0.0,0.0,0.0,7
9469.845,27110.205,-5449.139999999999,-15417.63,0.0,0.0,0.0,0.0,7
8824.994999999999,28719.09,-6248.79,-16146.045,0.0,0.0,0.0,0.0,7
9307.26,28477.35,-5674.005,-15641.37,0.0,0.0,0.0,0.0,7
10662.66,26144.775,-4022.955,-14151.195,0.0,0.0,0.0,0.0,7
11431.53,24206.129999999997,-2875.995,-13128.84,0.0,0.0,0.0,0.0,7
12411.54,22063.185,-1663.605,-12022.155,0.0,0.0,0.0,0.0,7
12133.08,21829.68,-1978.56,-12292.245,0.0,0.0,0.0,0.0,7
10456.02,24361.785,-3921.21,-14046.165,0.0,0.0,0.0,0.0,7
9589.95,26620.02,-5197.005,-15188.76,0.0,0.0,0.0,0.0,7
9001.395,28313.64,-6061.365,-15971.04,0.0,0.0,0.0,0.0,7
8979.029999999999,28930.86,-6051.15,-15979.995,0.0,0.0,0.0,0.0,7
10308.645,26945.01,-4482.405,-14563.8,0.0,0.0,0.0,0.0,7
11165.625,24881.76,-3245.805,-13460.625,0.0,0.0,0.0,0.0,7
12198.735,22673.565,-1912.905,-12250.845,0.0,0.0,0.0,0.0,7
12398.805,21650.22,-1656.54,-12001.095,0.0,0.0,0.0,0.0,7
11024.055,23479.02,-3265.2,-13460.85,0.0,0.0,0.0,0.0,7
9745.335,26162.955,-4934.295,-14961.915,0.0,0.0,0.0,0.0,7
9200.97,27847.62,-5811.705,-15739.695,0.0,0.0,0.0,0.0,7
8811.404999999999,29034.225,-6250.139999999999,-16152.12,0.0,0.0,0.0,0.0,7
9911.835,27691.47,-5007.195,-15046.425,0.0,0.0,0.0,0.0,7
10978.56,25428.33,-3578.355,-13764.33,0.0,0.0,0.0,0.0,7
11918.52,23294.61,-2277.495,-12584.565,0.0,0.0,0.0,0.0,7
12532.41,21585.69,-1499.4,-11856.69,0.0,0.0,0.0,0.0,7
11613.645,22501.26,-2579.4,-12830.985,0.0,0.0,0.0,0.0,7
9986.22,25395.885,-4551.974999999999,-14614.47,0.0,0.0,0.0,0.0,7
9425.385,27238.095,-5506.92,-15462.99,0.0,0.0,0.0,0.0,7
8848.98,28777.32,-6230.115,-16129.98,0.0,0.0,0.0,0.0,7
9478.395,28300.86,-5501.07,-15490.98,0.0,0.0,0.0,0.0,7
10765.035,25971.84,-3909.825,-14056.245,0.0,0.0,0.0,0.0,7
11578.095,23955.57,-2705.4,-12972.24,0.0,0.0,0.0,0.0,7
12493.17,21841.83,-1544.58,-11900.88,0.0,0.0,0.0,0.0,7
12082.86,21840.795,-2035.44,-12333.6,0.0,0.0,0.0,0.0,7
10394.91,24517.395,-4040.37,-14157.45,0.0,0.0,0.0,0.0,7
9571.95,26722.98,-5255.91,-15241.455,0.0,0.0,0.0,0.0,7
8952.93,28398.015,-6109.0199999999995,-16013.52,0.0,0.0,0.0,0.0,7
9054.945,28795.59,-5961.42,-15899.895,0.0,0.0,0.0,0.0,7
10418.445,26673.12,-4346.595,-14443.785,0.0,0.0,0.0,0.0,7
11256.975,24634.89,-3125.9249999999997,-13351.455,0.0,0.0,0.0,0.0,7
12313.17,22378.23,-1789.02,-12137.265,0.0,0.0,0.0,0.0,7
12398.58,21529.62,-1671.66,-12012.57,0.0,0.0,0.0,0.0,7
10910.25,23583.285,-3396.7799999999997,-13570.92,0.0,0.0,0.0,0.0,7
9727.875,26219.205,-4990.724999999999,-15012.0,0.0,0.0,0.0,0.0,7
9168.48,27900.405,-5858.37,-15782.805,0.0,0.0,0.0,0.0,7
8847.63,28959.525,-6204.554999999999,-16117.29,0.0,0.0,0.0,0.0,7
10006.38,27422.46,-4860.99,-14904.72,0.0,0.0,0.0,0.0,7
11025.36,25195.59,-3478.365,-13664.655,0.0,0.0,0.0,0.0,7
12015.495,23028.345,-2160.4049999999997,-12479.04,0.0,0.0,0.0,0.0,7
12531.87,21478.905,-1516.05,-11875.86,0.0,0.0,0.0,0.0,7
11462.985,22638.555,-2743.065,-12979.17,0.0,0.0,0.0,0.0,7
9922.095,25520.76,-4650.75,-14706.54,0.0,0.0,0.0,0.0,7
9398.565,27315.945,-5577.795,-15534.315,0.0,0.0,0.0,0.0,7
8838.135,28795.455,-6251.94,-16161.03,0.0,0.0,0.0,0.0,7
9553.14,28091.835,-5390.054999999999,-15385.005,0.0,0.0,0.0,0.0,7
10804.68,25742.43,-3816.225,-13967.64,0.0,0.0,0.0,0.0,7
11663.235,23726.025,-2596.5899999999997,-12874.005,0.0,0.0,0.0,0.0,7
12533.715,21703.545,-1523.655,-11890.98,0.0,0.0,0.0,0.0,7
11978.28,21925.98,-2155.59,-12450.195,0.0,0.0,0.0,0.0,7
10272.465,24688.26,-4173.345,-14274.405,0.0,0.0,0.0,0.0,7
9544.68,26788.77,-5313.87,-15291.54,0.0,0.0,0.0,0.0,7
8951.085,28417.545,-6133.094999999999,-16041.915,0.0,0.0,0.0,0.0,7
9186.12,28578.105,-5843.7,-15800.265,0.0,0.0,0.0,0.0,7
10552.455,26339.625,-4210.155,-14326.56,0.0,0.0,0.0,0.0,7
11365.65,24315.03,-3002.49,-13245.165,0.0,0.0,0.0,0.0,7
12376.98,22089.555,-1714.005,-12067.965,0.0,0.0,0.0,0.0,7
12335.445,21456.135,-1756.3049999999998,-12093.705,0.0,0.0,0.0,0.0,7
10779.03,23688.225,-3565.845,-13729.545,0.0,0.0,0.0,0.0,7
9697.32,26193.735,-5039.595,-15050.385,0.0,0.0,0.0,0.0,7
9172.71,27816.66,-5868.719999999999,-15790.23,0.0,0.0,0.0,0.0,7
8960.445,28689.885,-6095.79,-16019.1,0.0,0.0,0.0,0.0,7
10139.445,27052.515,-4711.86,-14776.83,0.0,0.0,0.0,0.0,7
10996.695,25026.84,-3469.455,-13664.79,0.0,0.0,0.0,0.0,7
11811.645,23092.02,-2315.0699999999997,-12621.06,0.0,0.0,0.0,0.0,7
12197.43,21849.075,-1849.545,-12195.18,0.0,0.0,0.0,0.0,7
11162.745,23116.32,-3073.185,-13287.06,0.0,0.0,0.0,0.0,7
9916.11,25676.504999999997,-4721.94,-14774.535,0.0,0.0,0.0,0.0,7
9470.97,27267.525,-5536.755,-15498.315,0.0,0.0,0.0,0.0,7
8972.505,28593.045,-6120.945,-16036.245,0.0,0.0,0.0,0.0,7
9730.035,27760.86,-5209.2,-15219.495,0.0,0.0,0.0,0.0,7
10804.995,25573.004999999997,-3774.24,-13932.09,0.0,0.0,0.0,0.0,7
11578.86,23698.215,-2643.885,-12920.895,0.0,0.0,0.0,0.0,7
12274.65,21945.87,-1754.1899999999998,-12106.485,0.0,0.0,0.0,0.0,7
11663.01,22367.655,-2475.36,-12747.195,0.0,0.0,0.0,0.0,7
10139.985,25007.31,-4342.095,-14435.01,0.0,0.0,0.0,0.0,7
9562.725,26866.71,-5332.7699999999995,-15311.655,0.0,0.0,0.0,0.0,7
9051.84,28312.47,-6042.24,-15959.7,0.0,0.0,0.0,0.0,7
9400.095,28220.805,-5618.745,-15594.48,0.0,0.0,0.0,0.0,7
10592.28,26103.87,-4117.905,-14239.71,0.0,0.0,0.0,0.0,7
11307.555,24255.0,-3019.9049999999997,-13264.38,0.0,0.0,0.0,0.0,7
12187.125,22246.11,-1875.51,-12221.55,0.0,0.0,0.0,0.0,7
12049.11,21845.879999999997,-2039.985,-12355.425,0.0,0.0,0.0,0.0,7
10569.33,24093.72,-3807.54,-13952.97,0.0,0.0,0.0,0.0,7
9716.94,26304.57,-5068.26,-15078.33,0.0,0.0,0.0,0.0,7
9262.53,27793.754999999997,-5820.03,-15748.38,0.0,0.0,0.0,0.0,7
9169.605,28428.66,-5893.29,-15832.98,0.0,0.0,0.0,0.0,7
10293.66,26725.05,-4536.09,-14614.56,0.0,0.0,0.0,0.0,7
11084.76,24811.379999999997,-3361.8599999999997,-13568.22,0.0,0.0,0.0,0.0,7
11992.005,22758.345,-2125.62,-12445.965,0.0,0.0,0.0,0.0,7
12266.955,21652.02,-1779.9299999999998,-12117.69,0.0,0.0,0.0,0.0,7
11076.795,23192.37,-3190.9049999999997,-13388.49,0.0,0.0,0.0,0.0,7
9849.69,25777.754999999997,-4817.655,-14859.405,0.0,0.0,0.0,0.0,7
9421.02,27323.145,-5590.304999999999,-15532.605,0.0,0.0,0.0,0.0,7
9043.785,28458.585,-6037.29,-15953.445,0.0,0.0,0.0,0.0,7
9888.03,27440.28,-5028.255,-15052.68,0.0,0.0,0.0,0.0,7
10883.025,25357.68,-3678.435,-13845.915,0.0,0.0,0.0,0.0,7
11754.945,23346.225,-2455.1549999999997,-12747.69,0.0,0.0,0.0,0.0,7
12433.77,21596.445,-1612.845,-11972.835,0.0,0.0,0.0,0.0,7
11670.66,22261.725,-2507.22,-12767.535,0.0,0.0,0.0,0.0,7
10101.735,25043.805,-4438.349999999999,-14516.91,0.0,0.0,0.0,0.0,7
9544.725,26914.455,-5414.535,-15390.855,0.0,0.0,0.0,0.0,7
8981.91,28401.435,-6117.795,-16024.545,0.0,0.0,0.0,0.0,7
9437.49,28159.92,-5563.71,-15545.43,0.0,0.0,0.0,0.0,7
10699.29,25942.14,-3999.645,-14137.605,0.0,0.0,0.0,0.0,7
11510.91,23947.02,-2791.575,-13045.05,0.0,0.0,0.0,0.0,7
12495.96,21748.185,-1568.475,-11926.44,0.0,0.0,0.0,0.0,7
12198.825,21530.97,-1902.78,-12210.705,0.0,0.0,0.0,0.0,7
10530.225,24094.62,-3861.45,-13983.255,0.0,0.0,0.0,0.0,7
9606.42,26457.57,-5199.4349999999995,-15187.05,0.0,0.0,0.0,0.0,7
9049.185,28091.835,-6019.695,-15930.18,0.0,0.0,0.0,0.0,7
9056.655,28622.43,-5977.44,-15910.92,0.0,0.0,0.0,0.0,7
10369.53,26636.58,-4425.165,-14509.755,0.0,0.0,0.0,0.0,7
11266.83,24563.655,-3155.49,-13374.405,0.0,0.0,0.0,0.0,7
12381.93,22215.375,-1740.33,-12083.94,0.0,0.0,0.0,0.0,7
12563.28,21177.405,-1507.59,-11852.955,0.0,0.0,0.0,0.0,7
11158.965,23046.345,-3162.285,-13354.155,0.0,0.0,0.0,0.0,7
9776.745,25877.97,-4926.24,-14950.845,0.0,0.0,0.0,0.0,7
9236.205,27610.245,-5803.425,-15731.64,0.0,0.0,0.0,0.0,7
8862.119999999999,28773.855,-6224.715,-16132.32,0.0,0.0,0.0,0.0,7
9937.125,27394.83,-4948.875,-14977.08,0.0,0.0,0.0,0.0,7
11018.025,25142.22,-3504.7799999999997,-13683.24,0.0,0.0,0.0,0.0,7
12069.45,22894.515,-2112.75,-12422.565,0.0,0.0,0.0,0.0,7
12690.405,21185.28,-1357.515,-11722.23,0.0,0.0,0.0,0.0,7
11726.955,22150.89,-2483.73,-12732.84,0.0,0.0,0.0,0.0,7
10018.62,25172.37,-4537.304999999999,-14592.24,0.0,0.0,0.0,0.0,7
9392.58,27135.36,-5547.78,-15495.48,0.0,0.0,0.0,0.0,7
8836.11,28655.955,-6246.9,-16142.49,0.0,0.0,0.0,0.0,7
9498.51,28112.49,-5470.92,-15454.845,0.0,0.0,0.0,0.0,7
10797.93,25781.4,-3858.3,-14002.11,0.0,0.0,0.0,0.0,7
11726.775,23658.525,-2558.745,-12831.525,0.0,0.0,0.0,0.0,7
12683.07,21461.355,-1372.275,-11736.27,0.0,0.0,0.0,0.0,7
12217.86,21517.83,-1909.575,-12213.0,0.0,0.0,0.0,0.0,7
10436.355,24336.765,-4003.38,-14113.62,0.0,0.0,0.0,0.0,7
9534.465,26692.695,-5305.275,-15279.255,0.0,0.0,0.0,0.0,7
8943.57,28364.805,-6136.2,-16036.56,0.0,0.0,0.0,0.0,7
9119.295,28665.27,-5926.545,-15872.13,0.0,0.0,0.0,0.0,7
10469.43,26494.74,-4287.915,-14381.685,0.0,0.0,0.0,0.0,7
11375.865,24368.58,-2999.6549999999997,-13224.825,0.0,0.0,0.0,0.0,7
12522.78,21979.935,-1594.44,-11948.49,0.0,0.0,0.0,0.0,7
12550.86,21160.71,-1526.8049999999998,-11864.385,0.0,0.0,0.0,0.0,7
10979.955,23313.285,-3326.22,-13490.01,0.0,0.0,0.0,0.0,7
9694.935,26120.61,-5028.03,-15035.625,0.0,0.0,0.0,0.0,7
9127.035,27878.58,-5916.6449999999995,-15831.9,0.0,0.0,0.0,0.0,7
8848.26,28913.895,-6228.719999999999,-16142.715,0.0,0.0,0.0,0.0,7
10068.795,27301.725,-4825.9349999999995,-14878.935,0.0,0.0,0.0,0.0,7
11119.95,25007.085,-3377.0699999999997,-13563.09,0.0,0.0,0.0,0.0,7
12231.0,22673.655,-1940.67,-12259.53,0.0,0.0,0.0,0.0,7
12733.02,21132.72,-1322.415,-11686.095,0.0,0.0,0.0,0.0,7
11594.52,22389.345,-2630.25,-12863.205,0.0,0.0,0.0,0.0,7
9916.92,25455.42,-4661.1449999999995,-14703.165,0.0,0.0,0.0,0.0,7
9299.115,27396.315,-5663.385,-15599.52,0.0,0.0,0.0,0.0,7
8773.425,28864.395,-6308.955,-16205.085,0.0,0.0,0.0,0.0,7
9589.05,28067.31,-5364.8099999999995,-15359.625,0.0,0.0,0.0,0.0,7
10872.045,25679.655,-3748.68,-13898.07,0.0,0.0,0.0,0.0,7
11855.385,23485.455,-2413.98,-12702.24,0.0,0.0,0.0,0.0,7
12737.88,21365.595,-1316.385,-11689.02,0.0,0.0,0.0,0.0,7
12114.945,21671.82,-2021.895,-12313.53,0.0,0.0,0.0,0.0,7
10310.4,24616.395,-4156.74,-14251.05,0.0,0.0,0.0,0.0,7
9486.585,26874.36,-5391.855,-15355.755,0.0,0.0,0.0,0.0,7
8856.27,28571.76,-6236.1449999999995,-16134.57,0.0,0.0,0.0,0.0,7
9137.295,28674.539999999997,-5876.82,-15821.775,0.0,0.0,0.0,0.0,7
10580.085,26334.0,-4164.21,-14274.315,0.0,0.0,0.0,0.0,7
11491.695,24184.395,-2868.165,-13108.77,0.0,0.0,0.0,0.0,7
12586.59,21828.42,-1501.425,-11860.29,0.0,0.0,0.0,0.0,7
12478.815,21250.98,-1609.875,-11945.115,0.0,0.0,0.0,0.0,7
10801.755,23654.475,-3532.77,-13682.79,0.0,0.0,0.0,0.0,7
9614.295,26370.585,-5132.07,-15129.81,0.0,0.0,0.0,0.0,7
9014.535,28131.66,-6026.4,-15931.755,0.0,0.0,0.0,0.0,7
8843.805,28999.8,-6200.505,-16110.585,0.0,0.0,0.0,0.0,7
10166.715,27175.77,-4676.8949999999995,-14737.905,0.0,0.0,0.0,0.0,7
11197.08,24923.61,-3277.575,-13482.945,0.0,0.0,0.0,0.0,7
12314.385,22558.41,-1846.62,-12184.56,0.0,0.0,0.0,0.0,7
12666.555,21208.59,-1384.9199999999998,-11742.345,0.0,0.0,0.0,0.0,7
11416.095,22719.96,-2837.97,-13053.735,0.0,0.0,0.0,0.0,7
9866.835,25734.015,-4784.3099999999995,-14821.695,0.0,0.0,0.0,0.0,7
9257.13,27604.935,-5750.73,-15683.355,0.0,0.0,0.0,0.0,7
8712.99,29044.305,-6349.679999999999,-16236.135,0.0,0.0,0.0,0.0,7
9650.61,28065.645,-5262.84,-15261.93,0.0,0.0,0.0,0.0,7
10909.08,25654.77,-3670.695,-13831.47,0.0,0.0,0.0,0.0,7
11944.08,23425.515,-2313.135,-12611.34,0.0,0.0,0.0,0.0,7
12698.82,21496.545,-1359.225,-11724.075,0.0,0.0,0.0,0.0,7
11903.445,22100.085,-2244.51,-12514.995,0.0,0.0,0.0,0.0,7
10139.445,25095.78,-4355.19,-14432.805,0.0,0.0,0.0,0.0,7
9424.305,27220.905,-5501.25,-15461.775,0.0,0.0,0.0,0.0,7
8767.485,28887.975,-6308.1449999999995,-16192.35,0.0,0.0,0.0,0.0,7
9199.17,28755.18,-5781.51,-15728.58,0.0,0.0,0.0,0.0,7
10648.35,26379.99,-4069.89,-14190.255,0.0,0.0,0.0,0.0,7
11567.97,24243.885,-2788.6949999999997,-13047.255,0.0,0.0,0.0,0.0,7
12559.59,21947.805,-1499.535,-11852.64,0.0,0.0,0.0,0.0,7
12308.355,21618.405,-1777.86,-12092.22,0.0,0.0,0.0,0.0,7
10599.66,24171.48,-3765.87,-13896.09,0.0,0.0,0.0,0.0,7
9564.795,26700.03,-5225.264999999999,-15213.06,0.0,0.0,0.0,0.0,7
8942.49,28453.95,-6126.795,-16025.67,0.0,0.0,0.0,0.0,7
8882.82,29120.22,-6155.28,-16069.995,0.0,0.0,0.0,0.0,7
10272.87,27123.254999999997,-4554.09,-14623.38,0.0,0.0,0.0,0.0,7
11232.27,24931.845,-3223.4849999999997,-13430.7,0.0,0.0,0.0,0.0,7
12311.325,22598.595,-1816.695,-12153.825,0.0,0.0,0.0,0.0,7
12546.945,21465.405,-1507.5449999999998,-11854.53,0.0,0.0,0.0,0.0,7
11161.035,23220.629999999997,-3103.065,-13295.25,0.0,0.0,0.0,0.0,7
9742.905,26096.85,-4917.554999999999,-14939.505,0.0,0.0,0.0,0.0,7
9156.825,27920.745,-5857.29,-15776.64,0.0,0.0,0.0,0.0,7
8735.805,29191.77,-6334.245,-16229.07,0.0,0.0,0.0,0.0,7
9824.895,27883.98,-5094.045,-15115.77,0.0,0.0,0.0,0.0,7
11008.71,25472.879999999997,-3551.265,-13720.59,0.0,0.0,0.0,0.0,7
12014.28,23242.14,-2206.845,-12506.4,0.0,0.0,0.0,0.0,7
12636.72,21508.245,-1418.22,-11779.2,0.0,0.0,0.0,0.0,7
11722.59,22375.935,-2459.97,-12712.995,0.0,0.0,0.0,0.0,7
10024.83,25377.254999999997,-4505.445,-14567.445,0.0,0.0,0.0,0.0,7
9337.41,27413.19,-5586.84,-15531.075,0.0,0.0,0.0,0.0,7
8723.835,29037.555,-6357.87,-16244.73,0.0,0.0,0.0,0.0,7
9332.505,28622.295,-5648.219999999999,-15614.28,0.0,0.0,0.0,0.0,7
10734.93,26178.435,-3936.555,-14066.73,0.0,0.0,0.0,0.0,7
11665.395,24038.595,-2641.9049999999997,-12904.605,0.0,0.0,0.0,0.0,7
12628.8,21868.47,-1457.28,-11824.02,0.0,0.0,0.0,0.0,7
12175.83,21850.155,-1939.32,-12243.87,0.0,0.0,0.0,0.0,7
10428.93,24558.975,-3977.46,-14090.85,0.0,0.0,0.0,0.0,7
9506.295,26918.325,-5314.7699999999995,-15294.69,0.0,0.0,0.0,0.0,7
8881.109999999999,28647.72,-6193.665,-16089.48,0.0,0.0,0.0,0.0,7
8990.145,29060.504999999997,-6048.495,-15973.65,0.0,0.0,0.0,0.0,7
10438.74,26896.995,-4388.849999999999,-14483.34,0.0,0.0,0.0,0.0,7
11377.26,24713.55,-3068.2799999999997,-13296.195,0.0,0.0,0.0,0.0,7
12443.58,22354.245,-1665.99,-12006.495,0.0,0.0,0.0,0.0,7
12506.805,21468.555,-1541.475,-11876.265,0.0,0.0,0.0,0.0,7
11032.335,23482.98,-3261.06,-13432.77,0.0,0.0,0.0,0.0,7
9700.11,26325.9,-5013.315,-15033.24,0.0,0.0,0.0,0.0,7
9118.71,28102.95,-5919.615,-15839.145,0.0,0.0,0.0,0.0,7
8807.085,29177.595,-6254.82,-16153.245,0.0,0.0,0.0,0.0,7
9976.635,27672.345,-4897.845,-14930.775,0.0,0.0,0.0,0.0,7
11082.96,25365.555,-3429.585,-13608.585,0.0,0.0,0.0,0.0,7
12167.28,23038.11,-2024.19,-12338.1,0.0,0.0,0.0,0.0,7
12697.02,21432.06,-1369.845,-11732.805,0.0,0.0,0.0,0.0,7
11635.92,22546.215,-2576.16,-12815.235,0.0,0.0,0.0,0.0,7
9933.21,25598.789999999997,-4623.57,-14672.79,0.0,0.0,0.0,0.0,7
9311.085,27525.735,-5631.255,-15567.615,0.0,0.0,0.0,0.0,7
8800.38,28962.81,-6279.57,-16171.29,0.0,0.0,0.0,0.0,7
9561.285,28266.84,-5415.929999999999,-15402.87,0.0,0.0,0.0,0.0,7
10862.91,25859.745,-3786.165,-13928.355,0.0,0.0,0.0,0.0,7
11838.015,23650.02,-2447.64,-12724.785,0.0,0.0,0.0,0.0,7
12746.25,21483.99,-1316.88,-11684.655,0.0,0.0,0.0,0.0,7
12210.435,21629.43,-1920.015,-12214.755,0.0,0.0,0.0,0.0,7
10412.01,24498.405,-4037.94,-14140.485,0.0,0.0,0.0,0.0,7
9501.435,26868.195,-5356.125,-15327.045,0.0,0.0,0.0,0.0,7
8881.785,28576.71,-6193.44,-16083.27,0.0,0.0,0.0,0.0,7
9125.955,28774.17,-5889.915,-15826.905,0.0,0.0,0.0,0.0,7
10557.855,26532.27,-4217.22,-14319.54,0.0,0.0,0.0,0.0,7
11491.245,24376.86,-2910.7349999999997,-13141.755,0.0,0.0,0.0,0.0,7
12591.765,21984.57,-1511.955,-11862.27,0.0,0.0,0.0,0.0,7
12535.245,21293.505,-1538.685,-11866.455,0.0,0.0,0.0,0.0,7
10936.665,23540.085,-3394.08,-13547.07,0.0,0.0,0.0,0.0,7
9624.78,26353.664999999997,-5096.745,-15079.815,0.0,0.0,0.0,0.0,7
9049.68,28116.36,-5992.469999999999,-15879.285,0.0,0.0,0.0,0.0,7
8824.904999999999,29038.41,-6221.969999999999,-16100.37,0.0,0.0,0.0,0.0,7
10092.69,27350.28,-4770.63,-14796.765,0.0,0.0,0.0,0.0,7
11241.135,25036.2,-3301.065,-13497.705,0.0,0.0,0.0,0.0,7
12324.96,22661.55,-1873.035,-12208.455,0.0,0.0,0.0,0.0,7
12684.78,21227.58,-1352.205,-11706.795,0.0,0.0,0.0,0.0,7
11504.07,22598.145,-2721.24,-12938.49,0.0,0.0,0.0,0.0,7
9862.785,25672.86,-4735.08,-14763.015,0.0,0.0,0.0,0.0,7
9290.88,27596.789999999997,-5715.09,-15652.53,0.0,0.0,0.0,0.0,7
8774.685,29001.465,-6309.224999999999,-16193.115,0.0,0.0,0.0,0.0,7
9608.355,28110.96,-5313.014999999999,-15291.945,0.0,0.0,0.0,0.0,7
10901.115,25692.75,-3700.125,-13838.85,0.0,0.0,0.0,0.0,7
11894.4,23484.87,-2358.765,-12633.21,0.0,0.0,0.0,0.0,7
12714.57,21474.585,-1355.6699999999998,-11711.34,0.0,0.0,0.0,0.0,7
12043.08,21864.15,-2114.955,-12382.74,0.0,0.0,0.0,0.0,7
10226.655,24824.97,-4228.695,-14305.23,0.0,0.0,0.0,0.0,7
9393.255,27084.914999999997,-5471.594999999999,-15418.665,0.0,0.0,0.0,0.0,7
8798.31,28733.58,-6274.17,-16144.245,0.0,0.0,0.0,0.0,7
9183.375,28693.754999999997,-5811.21,-15735.78,0.0,0.0,0.0,0.0,7
10614.33,26356.41,-4115.025,-14207.535,0.0,0.0,0.0,0.0,7
11516.58,24256.89,-2844.0,-13082.625,0.0,0.0,0.0,0.0,7
12442.41,22138.605,-1654.0649999999998,-12019.995,0.0,0.0,0.0,0.0,7
12119.445,21913.515,-1983.69,-12307.455,0.0,0.0,0.0,0.0,7
10577.34,24220.98,-3768.795,-13902.885,0.0,0.0,0.0,0.0,7
9733.14,26455.23,-5032.215,-15036.84,0.0,0.0,0.0,0.0,7
9465.435,27693.9,-5614.74,-15549.885,0.0,0.0,0.0,0.0,7
9414.855,28214.504999999997,-5658.03,-15600.69,0.0,0.0,0.0,0.0,7
10382.58,26729.91,-4464.54,-14535.045,0.0,0.0,0.0,0.0,7
11093.76,24945.66,-3365.73,-13560.615,0.0,0.0,0.0,0.0,7
11912.4,23023.035,-2227.77,-12535.065,0.0,0.0,0.0,0.0,7
12136.905,21987.36,-1899.855,-12223.755,0.0,0.0,0.0,0.0,7
11130.12,23252.31,-3090.645,-13276.17,0.0,0.0,0.0,0.0,7
9849.195,25858.62,-4772.655,-14789.34,0.0,0.0,0.0,0.0,7
9361.035,27528.435,-5634.855,-15548.085,0.0,0.0,0.0,0.0,7
8996.625,28685.385,-6079.005,-15971.085,0.0,0.0,0.0,0.0,7
9818.235,27758.655,-5108.94,-15123.105,0.0,0.0,0.0,0.0,7
11027.25,25412.22,-3554.8199999999997,-13722.345,0.0,0.0,0.0,0.0,7
12088.26,23086.665,-2144.205,-12438.945,0.0,0.0,0.0,0.0,7
12723.615,21276.63,-1319.85,-11670.39,0.0,0.0,0.0,0.0,7
12175.335,21585.06,-1993.725,-12262.905,0.0,0.0,0.0,0.0,7
10392.165,24481.17,-4097.295,-14168.97,0.0,0.0,0.0,0.0,7
8892.63,27697.41,-5992.965,-15923.115,0.0,0.0,0.0,0.0,7
7634.88,30413.879999999997,-7403.445,-17246.52,0.0,0.0,0.0,0.0,7
7820.235,30907.574999999997,-7124.94,-17011.755,0.0,0.0,0.0,0.0,7
9794.16,28062.629999999997,-4870.215,-14953.68,0.0,0.0,0.0,0.0,7
12046.32,24080.49,-2280.915,-12573.09,0.0,0.0,0.0,0.0,7
13514.85,20941.65,-568.665,-10982.97,0.0,0.0,0.0,0.0,7
13481.235,20093.895,-625.005,-10980.945,0.0,0.0,0.0,0.0,7
11870.73,22315.59,-2527.9649999999997,-12701.385,0.0,0.0,0.0,0.0,7
9616.185,26288.145,-5137.965,-15101.01,0.0,0.0,0.0,0.0,7
7821.855,29747.07,-7158.509999999999,-16946.684999999998,0.0,0.0,0.0,0.0,7
7370.91,31247.46,-7566.929999999999,-17325.0,0.0,0.0,0.0,0.0,7
8942.625,29344.41,-5780.7,-15700.23,0.0,0.0,0.0,0.0,7
11399.265,25362.855,-3034.62,-13221.18,0.0,0.0,0.0,0.0,7
13416.57,21693.465,-751.3199999999999,-11174.13,0.0,0.0,0.0,0.0,7
