CH1,CH2,CH3,CH4,CH5,CH6,CH7,CH8,Target
-76130.28,-26739.72,-84331.215,11109.51,0.0,0.0,0.0,0.0,5
-76127.94,-26741.115,-84347.73,11090.52,0.0,0.0,0.0,0.0,5
-76126.95,-26732.205,-84338.865,11101.905,0.0,0.0,0.0,0.0,5
-76127.355,-26724.825,-84331.395,11113.155,0.0,0.0,0.0,0.0,5
-76126.725,-26725.68,-84334.5,11108.07,0.0,0.0,0.0,0.0,5
-76126.41,-26725.95,-84326.67,11115.765,0.0,0.0,0.0,0.0,5
-76123.845,-26728.83,-84331.305,11106.27,0.0,0.0,0.0,0.0,5
-76124.745,-26729.64,-84342.645,11097.81,0.0,0.0,0.0,0.0,5
-76117.95,-26730.9,-84325.905,11115.27,0.0,0.0,0.0,0.0,5
-76121.64,-26732.385,-84326.58,11115.36,0.0,0.0,0.0,0.0,5
-76128.165,-26734.095,-84334.635,11106.405,0.0,0.0,0.0,0.0,5
-76126.455,-26730.63,-84327.165,11117.97,0.0,0.0,0.0,0.0,5
-76130.64,-26724.555,-84337.065,11110.275,0.0,0.0,0.0,0.0,5
-76129.02,-26719.065,-84338.64,11106.99,0.0,0.0,0.0,0.0,5
-76129.245,-26719.47,-84339.675,11109.15,0.0,0.0,0.0,0.0,5
-76123.395,-26719.83,-84335.04,11107.395,0.0,0.0,0.0,0.0,5
-76119.435,-26718.885,-84329.415,11112.93,0.0,0.0,0.0,0.0,5
-76116.6,-26717.94,-84320.37,11122.785,0.0,0.0,0.0,0.0,5
-76123.98,-26722.755,-84337.155,11102.805,0.0,0.0,0.0,0.0,5
-76128.075,-26724.33,-84338.73,11108.115,0.0,0.0,0.0,0.0,5
-76125.915,-26726.265,-84339.0,11110.545,0.0,0.0,0.0,0.0,5
-76118.985,-26727.075,-84331.755,11112.885,0.0,0.0,0.0,0.0,5
-76116.69,-26725.14,-84322.8,11118.735,0.0,0.0,0.0,0.0,5
-76115.475,-26720.73,-84321.0,11117.655,0.0,0.0,0.0,0.0,5
-76117.095,-26720.505,-84319.02,11119.32,0.0,0.0,0.0,0.0,5
-76121.235,-26721.18,-84323.07,11118.735,0.0,0.0,0.0,0.0,5
-76122.63,-26724.78,-84324.375,11118.78,0.0,0.0,0.0,0.0,5
-76120.425,-26724.195,-84319.515,11119.545,0.0,0.0,0.0,0.0,5
-76118.67,-26726.895,-84318.165,11121.66,0.0,0.0,0.0,0.0,5
-76120.02,-26730.315,-84317.22,11126.925,0.0,0.0,0.0,0.0,5
-76119.39,-26733.87,-84317.58,11122.11,0.0,0.0,0.0,0.0,5
-76119.48,-26732.61,-84310.74,11135.385,0.0,0.0,0.0,0.0,5
-76117.995,-26728.29,-84311.37,11135.115,0.0,0.0,0.0,0.0,5
-76126.635,-26725.545,-84339.09,11108.79,0.0,0.0,0.0,0.0,5
-76128.345,-26727.39,-84340.08,11103.165,0.0,0.0,0.0,0.0,5
-76123.665,-26729.055,-84329.505,11111.13,0.0,0.0,0.0,0.0,5
-76121.91,-26732.745,-84326.49,11114.01,0.0,0.0,0.0,0.0,5
-76120.335,-26733.33,-84324.33,11118.51,0.0,0.0,0.0,0.0,5
-76118.265,-26733.015,-84318.345,11127.015,0.0,0.0,0.0,0.0,5
-76117.725,-26730.27,-84318.255,11126.43,0.0,0.0,0.0,0.0,5
-76118.265,-26731.305,-84325.815,11118.195,0.0,0.0,0.0,0.0,5
-76124.25,-26734.095,-84332.205,11111.895,0.0,0.0,0.0,0.0,5
-76127.94,-26733.69,-84321.855,11125.755,0.0,0.0,0.0,0.0,5
-76128.48,-26730.225,-84330.27,11110.275,0.0,0.0,0.0,0.0,5
-76130.28,-26728.515,-84333.375,11104.56,0.0,0.0,0.0,0.0,5
-76128.03,-26730.495,-84320.82,11125.845,0.0,0.0,0.0,0.0,5
-76130.73,-26739.27,-84341.835,11097.18,0.0,0.0,0.0,0.0,5
-76124.16,-26745.525,-84326.22,11112.66,0.0,0.0,0.0,0.0,5
-76124.16,-26746.065,-84326.13,11112.39,0.0,0.0,0.0,0.0,5
-76125.285,-26743.77,-84331.575,11107.71,0.0,0.0,0.0,0.0,5
-76119.12,-26742.105,-84324.105,11113.875,0.0,0.0,0.0,0.0,5
-76122.405,-26739.585,-84324.24,11116.125,0.0,0.0,0.0,0.0,5
-76130.46,-26732.565,-84329.82,11114.145,0.0,0.0,0.0,0.0,5
-76128.525,-26729.595,-84330.585,11113.83,0.0,0.0,0.0,0.0,5
-76128.705,-26732.34,-84327.795,11117.655,0.0,0.0,0.0,0.0,5
-76122.405,-26734.68,-84317.355,11122.695,0.0,0.0,0.0,0.0,5
-76117.365,-26739.135,-84310.875,11127.105,0.0,0.0,0.0,0.0,5
-76125.015,-26741.34,-84326.13,11115.855,0.0,0.0,0.0,0.0,5
-76131.045,-26743.05,-84328.065,11116.125,0.0,0.0,0.0,0.0,5
-76126.995,-26742.78,-84319.245,11119.095,0.0,0.0,0.0,0.0,5
-76128.93,-26744.805,-84322.53,11114.055,0.0,0.0,0.0,0.0,5
-76130.955,-26746.11,-84330.225,11108.61,0.0,0.0,0.0,0.0,5
-76131.855,-26742.24,-84329.505,11110.32,0.0,0.0,0.0,0.0,5
-76133.565,-26738.46,-84329.055,11112.615,0.0,0.0,0.0,0.0,5
-76131.585,-26739.945,-84329.73,11112.345,0.0,0.0,0.0,0.0,5
-76130.145,-26741.52,-84328.38,11113.785,0.0,0.0,0.0,0.0,5
-76133.115,-26742.96,-84329.73,11114.73,0.0,0.0,0.0,0.0,5
-76135.095,-26740.62,-84330.675,11115.135,0.0,0.0,0.0,0.0,5
-76135.32,-26740.44,-84328.965,11116.305,0.0,0.0,0.0,0.0,5
-76132.17,-26742.24,-84324.51,11118.015,0.0,0.0,0.0,0.0,5
-76131.945,-26744.805,-84326.715,11115.36,0.0,0.0,0.0,0.0,5
-76138.605,-26744.445,-84320.775,11123.685,0.0,0.0,0.0,0.0,5
-76134.78,-26739.81,-84315.195,11133.225,0.0,0.0,0.0,0.0,5
-76132.53,-26736.12,-84325.59,11120.22,0.0,0.0,0.0,0.0,5
-76135.455,-26737.335,-84322.35,11124.99,0.0,0.0,0.0,0.0,5
-76129.47,-26737.92,-84334.815,11104.245,0.0,0.0,0.0,0.0,5
-76124.16,-26738.235,-84328.965,11106.72,0.0,0.0,0.0,0.0,5
-76122.63,-26738.37,-84311.28,11132.055,0.0,0.0,0.0,0.0,5
-76131.045,-26740.98,-84325.77,11119.68,0.0,0.0,0.0,0.0,5
-76135.005,-26740.215,-84334.14,11101.005,0.0,0.0,0.0,0.0,5
-76139.235,-26741.835,-84331.8,11107.125,0.0,0.0,0.0,0.0,5
-76137.39,-26742.645,-84340.845,11102.355,0.0,0.0,0.0,0.0,5
-76130.325,-26737.38,-84329.055,11107.98,0.0,0.0,0.0,0.0,5
-76131.585,-26731.08,-84327.345,11109.78,0.0,0.0,0.0,0.0,5
-76133.79,-26732.745,-84330.81,11105.91,0.0,0.0,0.0,0.0,5
-76135.41,-26737.065,-84333.555,11107.215,0.0,0.0,0.0,0.0,5
-76137.93,-26739.945,-84319.02,11125.8,0.0,0.0,0.0,0.0,5
-76140.36,-26741.835,-84331.44,11109.24,0.0,0.0,0.0,0.0,5
-76140.315,-26744.085,-84336.48,11104.56,0.0,0.0,0.0,0.0,5
-76127.67,-26744.4,-84325.995,11110.77,0.0,0.0,0.0,0.0,5
-76127.22,-26747.37,-84320.145,11119.185,0.0,0.0,0.0,0.0,5
-76130.865,-26746.965,-84323.16,11119.185,0.0,0.0,0.0,0.0,5
-76131.315,-26740.305,-84326.94,11115.09,0.0,0.0,0.0,0.0,5
-76130.685,-26736.885,-84325.815,11118.15,0.0,0.0,0.0,0.0,5
-76128.975,-26739.99,-84314.61,11127.78,0.0,0.0,0.0,0.0,5
-76131.855,-26742.105,-84304.98,11143.26,0.0,0.0,0.0,0.0,5
-76138.155,-26744.13,-84325.68,11117.52,0.0,0.0,0.0,0.0,5
-76142.295,-26743.545,-84342.195,11096.595,0.0,0.0,0.0,0.0,5
-76140.81,-26745.345,-84344.85,11097.54,0.0,0.0,0.0,0.0,5
-76134.51,-26744.04,-84326.04,11112.435,0.0,0.0,0.0,0.0,5
-76134.915,-26745.12,-84324.555,11116.26,0.0,0.0,0.0,0.0,5
-76135.5,-26747.64,-84323.385,11119.86,0.0,0.0,0.0,0.0,5
-76138.47,-26741.88,-84323.88,11122.785,0.0,0.0,0.0,0.0,5
-76133.25,-26737.83,-84324.195,11116.485,0.0,0.0,0.0,0.0,5
-76133.295,-26739.855,-84317.22,11124.27,0.0,0.0,0.0,0.0,5
-76135.77,-26739.0,-84335.265,11101.455,0.0,0.0,0.0,0.0,5
-76136.805,-26739.81,-84334.815,11103.435,0.0,0.0,0.0,0.0,5
-76138.965,-26740.26,-84330.18,11110.455,0.0,0.0,0.0,0.0,5
-76141.17,-26742.24,-84337.155,11100.78,0.0,0.0,0.0,0.0,5
-76138.38,-26744.49,-84332.745,11107.125,0.0,0.0,0.0,0.0,5
-76138.245,-26747.19,-84332.07,11111.535,0.0,0.0,0.0,0.0,5
-76135.095,-26744.805,-84324.915,11119.095,0.0,0.0,0.0,0.0,5
-76140.27,-26735.67,-84325.5,11120.31,0.0,0.0,0.0,0.0,5
-76138.335,-26727.93,-84316.14,11125.62,0.0,0.0,0.0,0.0,5
-76130.37,-26728.245,-84324.69,11111.805,0.0,0.0,0.0,0.0,5
-76137.795,-26729.955,-84330.81,11107.305,0.0,0.0,0.0,0.0,5
-76138.155,-26730.54,-84330.27,11109.42,0.0,0.0,0.0,0.0,5
-76138.83,-26730.27,-84327.345,11116.17,0.0,0.0,0.0,0.0,5
-76136.715,-26733.42,-84323.475,11117.88,0.0,0.0,0.0,0.0,5
-76133.835,-26733.015,-84320.1,11121.03,0.0,0.0,0.0,0.0,5
-76134.825,-26733.15,-84320.37,11123.01,0.0,0.0,0.0,0.0,5
-76131.81,-26732.115,-84320.595,11120.67,0.0,0.0,0.0,0.0,5
-76143.78,-26725.635,-84334.77,11108.925,0.0,0.0,0.0,0.0,5
-76147.47,-26719.74,-84333.285,11112.12,0.0,0.0,0.0,0.0,5
-76141.305,-26720.46,-84328.785,11115.18,0.0,0.0,0.0,0.0,5
-76133.7,-26725.32,-84323.835,11120.175,0.0,0.0,0.0,0.0,5
-76129.83,-26728.47,-84325.32,11110.95,0.0,0.0,0.0,0.0,5
-76133.25,-26727.57,-84318.615,11119.41,0.0,0.0,0.0,0.0,5
-76142.34,-26729.505,-84325.635,11118.105,0.0,0.0,0.0,0.0,5
-76145.445,-26730.54,-84326.985,11119.905,0.0,0.0,0.0,0.0,5
-76136.805,-26731.845,-84327.795,11114.145,0.0,0.0,0.0,0.0,5
-76132.665,-26732.79,-84335.22,11105.235,0.0,0.0,0.0,0.0,5
-76140.72,-26726.67,-84332.79,11110.68,0.0,0.0,0.0,0.0,5
-76144.5,-26721.945,-84331.215,11114.1,0.0,0.0,0.0,0.0,5
-76143.69,-26724.915,-84343.095,11101.59,0.0,0.0,0.0,0.0,5
-76144.095,-26730.045,-84335.58,11110.77,0.0,0.0,0.0,0.0,5
-76138.515,-26734.725,-84324.015,11119.23,0.0,0.0,0.0,0.0,5
-76143.555,-26734.725,-84329.19,11113.065,0.0,0.0,0.0,0.0,5
-76144.815,-26733.645,-84307.275,11139.885,0.0,0.0,0.0,0.0,5
-76146.885,-26734.32,-84321.27,11121.12,0.0,0.0,0.0,0.0,5
-76148.145,-26736.165,-84332.43,11113.83,0.0,0.0,0.0,0.0,5
-76149.675,-26736.03,-84346.02,11102.715,0.0,0.0,0.0,0.0,5
-76148.64,-26733.645,-84339.27,11107.08,0.0,0.0,0.0,0.0,5
-76147.515,-26728.47,-84331.395,11114.595,0.0,0.0,0.0,0.0,5
-76145.535,-26727.3,-84330.495,11116.215,0.0,0.0,0.0,0.0,5
-76147.155,-26729.055,-84330.18,11116.53,0.0,0.0,0.0,0.0,5
-76147.695,-26732.565,-84330.36,11117.655,0.0,0.0,0.0,0.0,5
-76148.865,-26734.095,-84333.105,11118.33,0.0,0.0,0.0,0.0,5
-76147.83,-26737.38,-84331.08,11120.625,0.0,0.0,0.0,0.0,5
-76144.68,-26738.145,-84324.465,11124.045,0.0,0.0,0.0,0.0,5
-76146.21,-26741.52,-84319.245,11126.925,0.0,0.0,0.0,0.0,5
-76141.98,-26743.14,-84311.505,11129.085,0.0,0.0,0.0,0.0,5
-76143.555,-26744.22,-84316.14,11126.07,0.0,0.0,0.0,0.0,5
-76144.275,-26745.615,-84321.0,11126.205,0.0,0.0,0.0,0.0,5
-76141.935,-26749.485,-84316.05,11130.12,0.0,0.0,0.0,0.0,5
-76145.49,-26753.715,-84319.47,11127.96,0.0,0.0,0.0,0.0,5
-76143.105,-26756.325,-84311.55,11143.215,0.0,0.0,0.0,0.0,5
-76134.555,-26754.84,-84312.72,11139.795,0.0,0.0,0.0,0.0,5
-76130.505,-26753.58,-84306.33,11143.08,0.0,0.0,0.0,0.0,5
-76142.07,-26753.265,-84314.745,11130.12,0.0,0.0,0.0,0.0,5
-76136.22,-26754.255,-84317.94,11119.725,0.0,0.0,0.0,0.0,5
-76135.185,-26754.84,-84321.54,11118.555,0.0,0.0,0.0,0.0,5
-76142.295,-26747.505,-84313.395,11133.99,0.0,0.0,0.0,0.0,5
-76144.59,-26740.53,-84324.42,11121.705,0.0,0.0,0.0,0.0,5
-76138.29,-26741.88,-84327.705,11114.145,0.0,0.0,0.0,0.0,5
-76138.965,-26744.625,-84321.27,11116.845,0.0,0.0,0.0,0.0,5
-76140.765,-26748.09,-84321.9,11117.655,0.0,0.0,0.0,0.0,5
-76138.065,-26748.675,-84322.26,11116.125,0.0,0.0,0.0,0.0,5
-76145.985,-26751.555,-84325.545,11121.12,0.0,0.0,0.0,0.0,5
-76138.02,-26751.96,-84319.335,11125.395,0.0,0.0,0.0,0.0,5
-76127.355,-26753.895,-84308.355,11128.185,0.0,0.0,0.0,0.0,5
-76128.345,-26753.535,-84311.955,11133.405,0.0,0.0,0.0,0.0,5
-76143.105,-26753.265,-84330.63,11116.755,0.0,0.0,0.0,0.0,5
-76146.165,-26751.825,-84329.55,11112.795,0.0,0.0,0.0,0.0,5
-76134.33,-26752.545,-84304.44,11132.415,0.0,0.0,0.0,0.0,5
-76125.42,-26755.65,-84290.175,11150.865,0.0,0.0,0.0,0.0,5
-76130.055,-26759.7,-84301.065,11144.88,0.0,0.0,0.0,0.0,5
-76134.465,-26761.095,-84303.27,11140.74,0.0,0.0,0.0,0.0,5
-76135.095,-26762.58,-84309.57,11129.49,0.0,0.0,0.0,0.0,5
-76138.38,-26762.4,-84312.225,11132.01,0.0,0.0,0.0,0.0,5
-76139.01,-26764.65,-84323.61,11118.42,0.0,0.0,0.0,0.0,5
-76142.205,-26764.83,-84324.645,11115.45,0.0,0.0,0.0,0.0,5
-76137.12,-26760.96,-84312.495,11127.195,0.0,0.0,0.0,0.0,5
-76138.38,-26755.425,-84308.4,11133.81,0.0,0.0,0.0,0.0,5
-76138.785,-26758.8,-84319.74,11122.245,0.0,0.0,0.0,0.0,5
-76135.77,-26763.165,-84312.18,11132.505,0.0,0.0,0.0,0.0,5
-76137.75,-26765.28,-84310.695,11137.32,0.0,0.0,0.0,0.0,5
-76138.695,-26766.99,-84318.57,11124.27,0.0,0.0,0.0,0.0,5
-76132.395,-26770.86,-84322.89,11112.705,0.0,0.0,0.0,0.0,5
-76141.35,-26773.02,-84322.89,11119.455,0.0,0.0,0.0,0.0,5
-76136.94,-26776.89,-84322.485,11115.495,0.0,0.0,0.0,0.0,5
-76135.185,-26776.44,-84319.965,11116.98,0.0,0.0,0.0,0.0,5
-76142.25,-26774.685,-84318.165,11124.765,0.0,0.0,0.0,0.0,5
-76139.775,-26772.03,-84312.765,11130.525,0.0,0.0,0.0,0.0,5
-76137.3,-26773.065,-84310.515,11130.255,0.0,0.0,0.0,0.0,5
-76135.5,-26777.52,-84312.36,11127.735,0.0,0.0,0.0,0.0,5
-76127.355,-26780.085,-84301.38,11139.84,0.0,0.0,0.0,0.0,5
-76126.14,-26780.13,-84292.02,11148.345,0.0,0.0,0.0,0.0,5
-76138.695,-26782.2,-84313.26,11124.045,0.0,0.0,0.0,0.0,5
-76139.055,-26781.615,-84311.955,11128.545,0.0,0.0,0.0,0.0,5
-76141.755,-26784.405,-84304.35,11142.315,0.0,0.0,0.0,0.0,5
-76140.27,-26785.305,-84307.14,11137.14,0.0,0.0,0.0,0.0,5
-76140.45,-26780.13,-84314.745,11137.32,0.0,0.0,0.0,0.0,5
-76144.32,-26774.055,-84317.895,11136.06,0.0,0.0,0.0,0.0,5
-76136.94,-26774.73,-84305.385,11138.67,0.0,0.0,0.0,0.0,5
-76134.6,-26781.57,-84311.505,11116.89,0.0,0.0,0.0,0.0,5
-76135.14,-26784.27,-84301.245,11131.83,0.0,0.0,0.0,0.0,5
-76131.9,-26781.435,-84300.255,11135.52,0.0,0.0,0.0,0.0,5
-76135.185,-26780.13,-84301.38,11138.355,0.0,0.0,0.0,0.0,5
-76138.965,-26781.885,-84302.73,11137.95,0.0,0.0,0.0,0.0,5
-76140.495,-26785.035,-84305.34,11136.33,0.0,0.0,0.0,0.0,5
-76142.25,-26783.595,-84317.49,11128.005,0.0,0.0,0.0,0.0,5
-76136.13,-26774.055,-84308.625,11129.4,0.0,0.0,0.0,0.0,5
-76129.785,-26771.445,-84308.94,11091.96,0.0,0.0,0.0,0.0,5
-76124.565,-26774.415,-84308.085,11088.54,0.0,0.0,0.0,0.0,5
-76123.44,-26775.495,-84274.83,11167.2,0.0,0.0,0.0,0.0,5
-76138.695,-26780.4,-84307.365,11136.555,0.0,0.0,0.0,0.0,5
-76154.94,-26781.615,-84317.49,11145.42,0.0,0.0,0.0,0.0,5
-76166.055,-26787.06,-84342.015,11128.095,0.0,0.0,0.0,0.0,5
-76167.945,-26789.355,-84352.095,11122.92,0.0,0.0,0.0,0.0,5
-76162.995,-26792.505,-84350.52,11121.12,0.0,0.0,0.0,0.0,5
-76145.04,-26792.505,-84327.255,11116.62,0.0,0.0,0.0,0.0,5
-76119.255,-26788.68,-84275.46,11139.75,0.0,0.0,0.0,0.0,5
-76136.355,-26789.805,-84289.05,11155.815,0.0,0.0,0.0,0.0,5
-76147.29,-26793.225,-84308.76,11159.055,0.0,0.0,0.0,0.0,5
-76166.73,-26796.87,-84314.79,11142.09,0.0,0.0,0.0,0.0,5
-76180.59,-26804.07,-84301.92,11157.885,0.0,0.0,0.0,0.0,5
-76149.315,-26811.54,-84310.695,11144.43,0.0,0.0,0.0,0.0,5
-76141.665,-26818.515,-84331.935,11108.835,0.0,0.0,0.0,0.0,5
-76162.545,-26822.16,-84322.89,11121.57,0.0,0.0,0.0,0.0,5
-76164.975,-26827.065,-84324.375,11128.185,0.0,0.0,0.0,0.0,5
-76139.28,-26826.57,-84311.73,11134.62,0.0,0.0,0.0,0.0,5
-76135.815,-26820.495,-84300.12,11136.24,0.0,0.0,0.0,0.0,5
-76123.17,-26815.23,-84305.07,11123.82,0.0,0.0,0.0,0.0,5
-76143.87,-26817.975,-84340.35,11114.37,0.0,0.0,0.0,0.0,5
-76181.22,-26822.745,-84355.65,11113.02,0.0,0.0,0.0,0.0,5
-76141.8,-26822.43,-84291.3,11137.185,0.0,0.0,0.0,0.0,5
-76102.83,-26821.755,-84246.12,11157.255,0.0,0.0,0.0,0.0,5
-76138.38,-26827.38,-84275.82,11153.97,0.0,0.0,0.0,0.0,5
-76174.605,-26829.54,-84317.895,11128.995,0.0,0.0,0.0,0.0,5
-76161.15,-26832.33,-84319.965,11124.54,0.0,0.0,0.0,0.0,5
-76130.46,-26833.32,-84290.445,11140.335,0.0,0.0,0.0,0.0,5
-76105.215,-26837.64,-84281.715,11131.425,0.0,0.0,0.0,0.0,5
-76102.29,-26836.38,-84273.03,11148.66,0.0,0.0,0.0,0.0,5
-76118.04,-26838.225,-84285.0,11147.715,0.0,0.0,0.0,0.0,5
-76133.295,-26845.695,-84293.28,11145.6,0.0,0.0,0.0,0.0,5
-76158.315,-26853.525,-84311.235,11133.45,0.0,0.0,0.0,0.0,5
-76165.92,-26854.02,-84342.555,11118.195,0.0,0.0,0.0,0.0,5
-76175.19,-26855.55,-84361.545,11105.91,0.0,0.0,0.0,0.0,5
-76143.96,-26854.335,-84306.33,11128.5,0.0,0.0,0.0,0.0,5
-76120.02,-26853.3,-84276.045,11150.19,0.0,0.0,0.0,0.0,5
-76126.365,-26853.345,-84281.94,11139.165,0.0,0.0,0.0,0.0,5
-76140.855,-26846.91,-84285.63,11147.535,0.0,0.0,0.0,0.0,5
-76133.16,-26843.04,-84292.515,11144.43,0.0,0.0,0.0,0.0,5
-76130.415,-26845.065,-84297.06,11141.28,0.0,0.0,0.0,0.0,5
-76131.855,-26847.9,-84308.355,11134.62,0.0,0.0,0.0,0.0,5
-76136.58,-26850.195,-84306.78,11133.405,0.0,0.0,0.0,0.0,5
-76144.365,-26850.555,-84302.55,11136.78,0.0,0.0,0.0,0.0,5
-76143.33,-26852.715,-84311.595,11127.735,0.0,0.0,0.0,0.0,5
-76141.575,-26854.155,-84313.62,11129.22,0.0,0.0,0.0,0.0,5
-76138.515,-26856.99,-84308.355,11133.585,0.0,0.0,0.0,0.0,5
-76131.855,-26856.675,-84301.56,11136.735,0.0,0.0,0.0,0.0,5
-76136.4,-26847.945,-84295.395,11141.685,0.0,0.0,0.0,0.0,5
-76126.095,-26841.78,-84290.175,11145.33,0.0,0.0,0.0,0.0,5
-76114.755,-26844.84,-84280.59,11163.69,0.0,0.0,0.0,0.0,5
-76155.795,-26846.145,-84238.965,11212.875,0.0,0.0,0.0,0.0,5
-76171.23,-26848.845,-84209.085,11229.345,0.0,0.0,0.0,0.0,5
-76153.095,-26849.745,-84227.175,11196.36,0.0,0.0,0.0,0.0,5
-76112.1,-26854.065,-84304.485,11120.76,0.0,0.0,0.0,0.0,5
-76176.405,-26861.265,-84364.515,11085.705,0.0,0.0,0.0,0.0,5
-76185.99,-26869.14,-84387.645,11067.12,0.0,0.0,0.0,0.0,5
-76149.99,-26870.31,-84362.94,11089.215,0.0,0.0,0.0,0.0,5
-76149.315,-26874.315,-84345.075,11113.83,0.0,0.0,0.0,0.0,5
-76153.635,-26877.51,-84341.655,11119.41,0.0,0.0,0.0,0.0,5
-76172.49,-26881.47,-84330.72,11127.15,0.0,0.0,0.0,0.0,5
-76134.15,-26885.205,-84287.295,11143.845,0.0,0.0,0.0,0.0,5
-76119.12,-26886.69,-84274.605,11146.05,0.0,0.0,0.0,0.0,5
-76131.675,-26888.04,-84303.495,11124.63,0.0,0.0,0.0,0.0,5
-76144.455,-26890.245,-84310.245,11126.385,0.0,0.0,0.0,0.0,5
-76141.485,-26888.58,-84297.87,11144.97,0.0,0.0,0.0,0.0,5
-76149.99,-26891.37,-84321.36,11133.45,0.0,0.0,0.0,0.0,5
-76169.655,-26892.63,-84337.83,11123.325,0.0,0.0,0.0,0.0,5
-76159.8,-26887.5,-84311.19,11134.395,0.0,0.0,0.0,0.0,5
-76144.77,-26881.515,-84277.305,11156.49,0.0,0.0,0.0,0.0,5
-76140.72,-26883.09,-84267.9,11167.02,0.0,0.0,0.0,0.0,5
-76123.98,-26887.68,-84261.645,11163.15,0.0,0.0,0.0,0.0,5
-76114.845,-26889.885,-84249.0,11169.945,0.0,0.0,0.0,0.0,5
-76150.62,-26890.155,-84231.54,11191.365,0.0,0.0,0.0,0.0,5
-76137.075,-26890.875,-84248.28,11176.47,0.0,0.0,0.0,0.0,5
-76142.52,-26894.205,-84284.685,11143.485,0.0,0.0,0.0,0.0,5
-76155.57,-26903.25,-84327.57,11120.535,0.0,0.0,0.0,0.0,5
-76166.145,-26903.88,-84367.755,11094.57,0.0,0.0,0.0,0.0,5
-76179.87,-26898.39,-84397.905,11115.675,0.0,0.0,0.0,0.0,5
-76167.765,-26894.475,-84436.02,11091.285,0.0,0.0,0.0,0.0,5
-76141.215,-26895.465,-84399.705,11083.5,0.0,0.0,0.0,0.0,5
-76131.72,-26895.96,-84288.96,11120.805,0.0,0.0,0.0,0.0,5
-76148.91,-26896.815,-84207.15,11147.085,0.0,0.0,0.0,0.0,5
-76175.055,-26899.695,-84254.625,11120.58,0.0,0.0,0.0,0.0,5
-76127.13,-26901.45,-84277.08,11102.805,0.0,0.0,0.0,0.0,5
-76091.625,-26901.0,-84253.095,11126.43,0.0,0.0,0.0,0.0,5
-76107.42,-26905.365,-84254.94,11135.745,0.0,0.0,0.0,0.0,5
-76132.215,-26907.57,-84268.215,11134.305,0.0,0.0,0.0,0.0,5
-76154.85,-26904.195,-84239.775,11169.36,0.0,0.0,0.0,0.0,5
-76135.725,-26897.85,-84235.32,11189.25,0.0,0.0,0.0,0.0,5
-76113.99,-26896.14,-84260.79,11178.09,0.0,0.0,0.0,0.0,5
-76138.965,-26896.455,-84288.24,11157.975,0.0,0.0,0.0,0.0,5
-76165.38,-26897.445,-84319.785,11130.705,0.0,0.0,0.0,0.0,5
-76178.25,-26896.68,-84336.075,11118.285,0.0,0.0,0.0,0.0,5
-76179.735,-26896.455,-84330.09,11127.285,0.0,0.0,0.0,0.0,5
-76164.795,-26894.43,-84321.675,11142.81,0.0,0.0,0.0,0.0,5
-76156.56,-26892.99,-84308.715,11163.87,0.0,0.0,0.0,0.0,5
-76153.32,-26890.875,-84293.865,11170.08,0.0,0.0,0.0,0.0,5
-76153.14,-26880.57,-84288.78,11157.435,0.0,0.0,0.0,0.0,5
-76154.355,-26875.8,-84313.53,11143.62,0.0,0.0,0.0,0.0,5
-76157.01,-26880.255,-84375.72,11140.245,0.0,0.0,0.0,0.0,5
-76181.625,-26881.92,-84477.195,11118.105,0.0,0.0,0.0,0.0,5
-76192.695,-26882.01,-84473.64,11116.08,0.0,0.0,0.0,0.0,5
-76175.325,-26879.49,-84390.165,11135.205,0.0,0.0,0.0,0.0,5
-76129.29,-26877.105,-84234.105,11163.285,0.0,0.0,0.0,0.0,5
-76156.515,-26879.715,-84223.575,11146.635,0.0,0.0,0.0,0.0,5
-76172.67,-26884.845,-84262.995,11122.785,0.0,0.0,0.0,0.0,5
-76114.755,-26881.785,-84223.215,11152.665,0.0,0.0,0.0,0.0,5
-76107.105,-26869.725,-84163.32,11207.115,0.0,0.0,0.0,0.0,5
-76159.62,-26865.0,-84232.845,11183.175,0.0,0.0,0.0,0.0,5
-76201.515,-26868.15,-84311.1,11142.135,0.0,0.0,0.0,0.0,5
-76197.015,-26868.105,-84320.37,11156.355,0.0,0.0,0.0,0.0,5
-76172.49,-26865.81,-84306.105,11161.98,0.0,0.0,0.0,0.0,5
-76182.615,-26866.215,-84326.715,11128.635,0.0,0.0,0.0,0.0,5
-76210.47,-26870.22,-84328.965,11125.71,0.0,0.0,0.0,0.0,5
-76211.64,-26870.445,-84336.3,11122.38,0.0,0.0,0.0,0.0,5
-76193.235,-26868.51,-84312.495,11136.51,0.0,0.0,0.0,0.0,5
-76158.45,-26866.305,-84300.705,11142.405,0.0,0.0,0.0,0.0,5
-76161.69,-26862.795,-84320.37,11145.33,0.0,0.0,0.0,0.0,5
-76176.855,-26861.805,-84327.975,11151.135,0.0,0.0,0.0,0.0,5
-76183.38,-26865.045,-84370.365,11119.185,0.0,0.0,0.0,0.0,5
-76198.365,-26864.865,-84400.74,11103.12,0.0,0.0,0.0,0.0,5
-76196.475,-26866.08,-84412.53,11104.875,0.0,0.0,0.0,0.0,5
-76160.565,-26863.38,-84322.08,11140.83,0.0,0.0,0.0,0.0,5
-76141.575,-26861.895,-84229.74,11188.98,0.0,0.0,0.0,0.0,5
-76126.545,-26860.545,-84222.135,11179.485,0.0,0.0,0.0,0.0,5
-76151.34,-26860.86,-84244.23,11182.995,0.0,0.0,0.0,0.0,5
-76149.315,-26858.79,-84225.69,11206.62,0.0,0.0,0.0,0.0,5
-76139.235,-26858.7,-84256.02,11183.13,0.0,0.0,0.0,0.0,5
-76172.4,-26856.405,-84307.725,11152.53,0.0,0.0,0.0,0.0,5
-76194.765,-26856.225,-84315.69,11151.27,0.0,0.0,0.0,0.0,5
-76185.045,-26851.23,-84268.89,11188.08,0.0,0.0,0.0,0.0,5
-76170.78,-26847.855,-84300.48,11165.67,0.0,0.0,0.0,0.0,5
-76145.085,-26842.995,-84338.415,11131.11,0.0,0.0,0.0,0.0,5
-76112.37,-26837.775,-84308.265,11161.98,0.0,0.0,0.0,0.0,5
-76122.63,-26835.66,-84321.63,11159.37,0.0,0.0,0.0,0.0,5
-76156.605,-26835.705,-84360.195,11134.8,0.0,0.0,0.0,0.0,5
-76196.385,-26833.545,-84382.11,11113.155,0.0,0.0,0.0,0.0,5
-76157.37,-26819.325,-84305.295,11127.33,0.0,0.0,0.0,0.0,5
-76164.345,-26810.28,-84287.835,11146.095,0.0,0.0,0.0,0.0,5
-76201.47,-26812.935,-84346.11,11149.335,0.0,0.0,0.0,0.0,5
-76239.45,-26815.095,-84359.745,11135.79,0.0,0.0,0.0,0.0,5
-76216.095,-26815.77,-84350.025,11139.165,0.0,0.0,0.0,0.0,5
-76179.51,-26816.13,-84353.49,11136.105,0.0,0.0,0.0,0.0,5
-76206.735,-26818.92,-84332.295,11166.435,0.0,0.0,0.0,0.0,5
-76163.22,-26814.69,-84257.64,11173.14,0.0,0.0,0.0,0.0,5
-76111.83,-26812.71,-84233.97,11189.16,0.0,0.0,0.0,0.0,5
-76104.63,-26815.365,-84287.295,11161.395,0.0,0.0,0.0,0.0,5
-76124.88,-26813.79,-84333.15,11131.245,0.0,0.0,0.0,0.0,5
-76113.9,-26810.37,-84359.79,11111.715,0.0,0.0,0.0,0.0,5
-76128.885,-26810.82,-84329.055,11145.195,0.0,0.0,0.0,0.0,5
-76169.43,-26809.965,-84240.315,11197.71,0.0,0.0,0.0,0.0,5
-76161.015,-26812.305,-84254.805,11160.495,0.0,0.0,0.0,0.0,5
-76118.31,-26811.72,-84280.95,11142.63,0.0,0.0,0.0,0.0,5
-76115.745,-26812.08,-84283.83,11154.195,0.0,0.0,0.0,0.0,5
-76152.42,-26812.215,-84279.69,11175.66,0.0,0.0,0.0,0.0,5
-76158.63,-26814.24,-84305.385,11160.72,0.0,0.0,0.0,0.0,5
-76144.275,-26812.665,-84313.62,11148.165,0.0,0.0,0.0,0.0,5
-76136.49,-26801.37,-84280.365,11160.945,0.0,0.0,0.0,0.0,5
-76121.145,-26796.15,-84295.665,11142.855,0.0,0.0,0.0,0.0,5
-76151.565,-26799.345,-84288.69,11166.93,0.0,0.0,0.0,0.0,5
-76157.19,-26800.92,-84315.645,11150.325,0.0,0.0,0.0,0.0,5
-76156.02,-26806.86,-84392.865,11112.39,0.0,0.0,0.0,0.0,5
-76177.08,-26811.405,-84491.46,11075.355,0.0,0.0,0.0,0.0,5
-76187.295,-26814.15,-84507.075,11066.4,0.0,0.0,0.0,0.0,5
-76155.12,-26810.28,-84366.63,11108.295,0.0,0.0,0.0,0.0,5
-76120.605,-26809.11,-84251.07,11137.23,0.0,0.0,0.0,0.0,5
-76160.88,-26812.665,-84277.89,11139.795,0.0,0.0,0.0,0.0,5
-76165.11,-26809.065,-84288.69,11143.98,0.0,0.0,0.0,0.0,5
-76143.465,-26802.63,-84276.45,11152.035,0.0,0.0,0.0,0.0,5
-76156.11,-26804.97,-84298.455,11153.97,0.0,0.0,0.0,0.0,5
-76128.705,-26807.49,-84285.675,11161.665,0.0,0.0,0.0,0.0,5
-76096.845,-26809.74,-84238.56,11196.585,0.0,0.0,0.0,0.0,5
-76084.785,-26810.055,-84251.88,11174.85,0.0,0.0,0.0,0.0,5
-76135.455,-26814.69,-84279.465,11168.685,0.0,0.0,0.0,0.0,5
-76145.49,-26816.085,-84329.235,11140.83,0.0,0.0,0.0,0.0,5
-76172.58,-26818.65,-84347.64,11123.955,0.0,0.0,0.0,0.0,5
-76198.77,-26820.36,-84374.145,11091.24,0.0,0.0,0.0,0.0,5
-76192.02,-26816.445,-84449.205,11070.405,0.0,0.0,0.0,0.0,5
-76175.955,-26815.14,-84498.795,11055.465,0.0,0.0,0.0,0.0,5
-76203.0,-26818.785,-84484.845,11069.28,0.0,0.0,0.0,0.0,5
-76197.33,-26816.22,-84333.78,11124.045,0.0,0.0,0.0,0.0,5
-76150.98,-26818.515,-84312.315,11136.78,0.0,0.0,0.0,0.0,5
-76100.265,-26814.015,-84212.73,11180.97,0.0,0.0,0.0,0.0,5
-76150.44,-26814.735,-84195.27,11190.015,0.0,0.0,0.0,0.0,5
-76175.37,-26820.945,-84259.485,11157.255,0.0,0.0,0.0,0.0,5
-76079.205,-26820.405,-84235.32,11163.825,0.0,0.0,0.0,0.0,5
-76071.195,-26822.115,-84289.815,11141.685,0.0,0.0,0.0,0.0,5
-76182.03,-26821.98,-84325.455,11130.075,0.0,0.0,0.0,0.0,5
-76279.815,-26820.09,-84348.18,11145.06,0.0,0.0,0.0,0.0,5
-76225.815,-26818.92,-84348.765,11167.83,0.0,0.0,0.0,0.0,5
-76135.68,-26816.13,-84365.145,11142.585,0.0,0.0,0.0,0.0,5
-76085.865,-26815.545,-84321.54,11132.685,0.0,0.0,0.0,0.0,5
-76149.135,-26820.495,-84386.205,11109.375,0.0,0.0,0.0,0.0,5
-76264.965,-26828.37,-84504.915,11081.655,0.0,0.0,0.0,0.0,5
-76220.82,-26826.12,-84482.01,11051.685,0.0,0.0,0.0,0.0,5
-76153.59,-26821.395,-84352.185,11100.33,0.0,0.0,0.0,0.0,5
-76092.48,-26814.195,-84181.32,11154.42,0.0,0.0,0.0,0.0,5
-76081.5,-26805.645,-84118.545,11217.105,0.0,0.0,0.0,0.0,5
-76121.955,-26803.305,-84232.89,11190.465,0.0,0.0,0.0,0.0,5
-76152.285,-26806.905,-84318.615,11144.565,0.0,0.0,0.0,0.0,5
-76163.76,-26806.545,-84307.05,11149.92,0.0,0.0,0.0,0.0,5
-76180.32,-26807.67,-84309.165,11141.145,0.0,0.0,0.0,0.0,5
-76185.9,-26809.605,-84353.625,11104.065,0.0,0.0,0.0,0.0,5
-76146.39,-26808.615,-84349.665,11089.98,0.0,0.0,0.0,0.0,5
-76134.195,-26806.905,-84336.615,11103.615,0.0,0.0,0.0,0.0,5
-76116.42,-26806.32,-84303.135,11123.19,0.0,0.0,0.0,0.0,5
-76147.065,-26807.4,-84334.995,11129.355,0.0,0.0,0.0,0.0,5
-76197.015,-26809.74,-84414.51,11133.855,0.0,0.0,0.0,0.0,5
-76290.93,-26813.205,-84568.59,11094.21,0.0,0.0,0.0,0.0,5
-76226.805,-26811.09,-84552.21,11056.32,0.0,0.0,0.0,0.0,5
-76099.05,-26801.19,-84327.165,11114.415,0.0,0.0,0.0,0.0,5
-76034.025,-26794.71,-84061.8,11199.285,0.0,0.0,0.0,0.0,5
-76113.495,-26801.595,-84167.595,11166.525,0.0,0.0,0.0,0.0,5
-76148.01,-26807.94,-84247.02,11143.17,0.0,0.0,0.0,0.0,5
-76142.565,-26809.47,-84304.035,11128.095,0.0,0.0,0.0,0.0,5
-76158.27,-26813.7,-84374.01,11102.76,0.0,0.0,0.0,0.0,5
-76180.05,-26816.13,-84407.625,11093.085,0.0,0.0,0.0,0.0,5
-76181.805,-26810.415,-84363.84,11121.975,0.0,0.0,0.0,0.0,5
-76171.59,-26805.915,-84304.485,11155.5,0.0,0.0,0.0,0.0,5
-76195.665,-26808.885,-84246.3,11161.125,0.0,0.0,0.0,0.0,5
-76226.355,-26815.995,-84380.715,11096.955,0.0,0.0,0.0,0.0,5
-76186.8,-26821.89,-84463.2,11056.635,0.0,0.0,0.0,0.0,5
-76105.755,-26818.56,-84366.54,11085.21,0.0,0.0,0.0,0.0,5
-76076.145,-26811.945,-84157.245,11206.35,0.0,0.0,0.0,0.0,5
-76097.79,-26811.495,-84200.355,11212.695,0.0,0.0,0.0,0.0,5
-76147.155,-26818.11,-84329.19,11138.76,0.0,0.0,0.0,0.0,5
-76181.805,-26823.915,-84353.58,11118.195,0.0,0.0,0.0,0.0,5
-76160.79,-26825.85,-84344.715,11135.745,0.0,0.0,0.0,0.0,5
-76162.275,-26825.13,-84382.785,11133.315,0.0,0.0,0.0,0.0,5
-76201.38,-26833.455,-84457.935,11089.935,0.0,0.0,0.0,0.0,5
-76211.685,-26840.385,-84481.47,11066.94,0.0,0.0,0.0,0.0,5
-76160.97,-26839.665,-84369.33,11088.585,0.0,0.0,0.0,0.0,5
-76187.295,-26844.345,-84384.99,11083.095,0.0,0.0,0.0,0.0,5
-76192.11,-26845.92,-84306.87,11119.725,0.0,0.0,0.0,0.0,5
-76164.03,-26844.39,-84241.53,11150.28,0.0,0.0,0.0,0.0,5
-76095.72,-26846.325,-84194.28,11175.975,0.0,0.0,0.0,0.0,5
-76093.515,-26850.6,-84254.13,11177.37,0.0,0.0,0.0,0.0,5
-76153.77,-26851.995,-84409.02,11127.96,0.0,0.0,0.0,0.0,5
-76237.425,-26859.105,-84567.105,11079.09,0.0,0.0,0.0,0.0,5
-76199.715,-26861.13,-84491.595,11070.36,0.0,0.0,0.0,0.0,5
-76156.155,-26856.54,-84256.47,11130.885,0.0,0.0,0.0,0.0,5
-76157.055,-26857.395,-84151.125,11167.11,0.0,0.0,0.0,0.0,5
-76183.155,-26865.675,-84274.74,11150.73,0.0,0.0,0.0,0.0,5
-76151.34,-26868.87,-84297.465,11126.16,0.0,0.0,0.0,0.0,5
-76147.47,-26869.275,-84305.52,11123.91,0.0,0.0,0.0,0.0,5
-76138.245,-26871.48,-84318.12,11133.63,0.0,0.0,0.0,0.0,5
-76155.39,-26870.175,-84270.915,11155.23,0.0,0.0,0.0,0.0,5
-76156.83,-26868.825,-84281.85,11149.02,0.0,0.0,0.0,0.0,5
-76190.04,-26869.635,-84434.895,11114.01,0.0,0.0,0.0,0.0,5
-76238.01,-26875.665,-84611.7,11050.83,0.0,0.0,0.0,0.0,5
-76224.6,-26873.055,-84526.695,11057.895,0.0,0.0,0.0,0.0,5
-76126.185,-26861.895,-84198.825,11172.825,0.0,0.0,0.0,0.0,5
-76106.07,-26861.265,-84171.24,11179.35,0.0,0.0,0.0,0.0,5
-76142.52,-26866.35,-84248.055,11156.895,0.0,0.0,0.0,0.0,5
-76120.515,-26868.285,-84307.725,11114.685,0.0,0.0,0.0,0.0,5
-76208.49,-26876.97,-84471.075,11071.035,0.0,0.0,0.0,0.0,5
-76229.37,-26880.795,-84516.435,11036.43,0.0,0.0,0.0,0.0,5
-76155.39,-26872.245,-84286.08,11131.02,0.0,0.0,0.0,0.0,5
-76187.88,-26871.075,-84261.555,11171.295,0.0,0.0,0.0,0.0,5
-76225.905,-26881.875,-84479.22,11076.615,0.0,0.0,0.0,0.0,5
-76204.62,-26881.29,-84480.435,11040.435,0.0,0.0,0.0,0.0,5
-76167.945,-26874.945,-84286.575,11085.345,0.0,0.0,0.0,0.0,5
-76153.23,-26872.245,-84249.675,11118.285,0.0,0.0,0.0,0.0,5
-76120.515,-26871.48,-84226.32,11156.805,0.0,0.0,0.0,0.0,5
-76140.54,-26872.56,-84255.615,11174.76,0.0,0.0,0.0,0.0,5
-76178.565,-26878.905,-84385.62,11122.02,0.0,0.0,0.0,0.0,5
-76237.605,-26879.445,-84419.1,11089.485,0.0,0.0,0.0,0.0,5
-76288.905,-26869.995,-84369.24,11120.895,0.0,0.0,0.0,0.0,5
-76261.77,-26864.82,-84387.24,11089.26,0.0,0.0,0.0,0.0,5
-76210.11,-26864.82,-84383.37,11089.26,0.0,0.0,0.0,0.0,5
-76206.24,-26865.495,-84484.98,11067.93,0.0,0.0,0.0,0.0,5
-76172.31,-26865.855,-84488.49,11063.205,0.0,0.0,0.0,0.0,5
-76113.135,-26861.4,-84285.54,11135.835,0.0,0.0,0.0,0.0,5
-76117.995,-26868.15,-84336.12,11101.86,0.0,0.0,0.0,0.0,5
-76187.43,-26872.2,-84340.08,11106.27,0.0,0.0,0.0,0.0,5
-76161.825,-26873.37,-84359.43,11096.55,0.0,0.0,0.0,0.0,5
-76176.18,-26874.675,-84368.88,11114.505,0.0,0.0,0.0,0.0,5
-76236.165,-26875.44,-84344.445,11159.64,0.0,0.0,0.0,0.0,5
-76286.34,-26878.635,-84455.73,11116.89,0.0,0.0,0.0,0.0,5
-76215.105,-26876.61,-84414.915,11114.46,0.0,0.0,0.0,0.0,5
-76122.315,-26869.905,-84283.65,11148.885,0.0,0.0,0.0,0.0,5
-76088.205,-26869.5,-84243.24,11162.61,0.0,0.0,0.0,0.0,5
-76131.27,-26871.975,-84340.665,11117.7,0.0,0.0,0.0,0.0,5
-76192.92,-26876.07,-84438.405,11077.695,0.0,0.0,0.0,0.0,5
-76213.98,-26873.145,-84337.02,11122.515,0.0,0.0,0.0,0.0,5
-76235.76,-26870.175,-84168.63,11199.33,0.0,0.0,0.0,0.0,5
-76237.83,-26873.91,-84247.155,11155.635,0.0,0.0,0.0,0.0,5
-76153.815,-26869.005,-84276.99,11129.085,0.0,0.0,0.0,0.0,5
-76137.66,-26863.83,-84316.59,11132.415,0.0,0.0,0.0,0.0,5
-76228.38,-26872.65,-84484.08,11093.625,0.0,0.0,0.0,0.0,5
-76279.725,-26881.515,-84549.195,11065.14,0.0,0.0,0.0,0.0,5
-76186.98,-26874.315,-84301.875,11141.28,0.0,0.0,0.0,0.0,5
-76149.0,-26869.86,-84192.39,11204.01,0.0,0.0,0.0,0.0,5
-76153.77,-26874.315,-84290.67,11149.47,0.0,0.0,0.0,0.0,5
-76148.325,-26875.215,-84244.545,11164.23,0.0,0.0,0.0,0.0,5
-76180.86,-26880.345,-84289.77,11154.105,0.0,0.0,0.0,0.0,5
-76192.83,-26882.865,-84331.98,11124.135,0.0,0.0,0.0,0.0,5
-76181.085,-26877.87,-84347.865,11113.56,0.0,0.0,0.0,0.0,5
-76189.41,-26871.03,-84362.895,11127.195,0.0,0.0,0.0,0.0,5
-76255.965,-26873.91,-84478.05,11110.68,0.0,0.0,0.0,0.0,5
-76252.005,-26874.99,-84479.715,11076.435,0.0,0.0,0.0,0.0,5
-76181.04,-26868.33,-84227.535,11164.05,0.0,0.0,0.0,0.0,5
-76162.545,-26867.565,-84224.745,11159.28,0.0,0.0,0.0,0.0,5
-76166.415,-26870.625,-84306.51,11114.46,0.0,0.0,0.0,0.0,5
-76192.74,-26873.37,-84358.08,11095.92,0.0,0.0,0.0,0.0,5
-76174.155,-26875.98,-84363.03,11114.145,0.0,0.0,0.0,0.0,5
-76157.415,-26876.52,-84411.63,11109.375,0.0,0.0,0.0,0.0,5
-76204.755,-26876.295,-84572.46,11058.885,0.0,0.0,0.0,0.0,5
-76228.515,-26871.615,-84580.515,11035.215,0.0,0.0,0.0,0.0,5
-76254.885,-26866.305,-84383.46,11092.005,0.0,0.0,0.0,0.0,5
-76265.55,-26862.075,-84268.17,11149.56,0.0,0.0,0.0,0.0,5
-76251.555,-26868.15,-84395.34,11118.645,0.0,0.0,0.0,0.0,5
-76153.185,-26867.025,-84400.29,11089.71,0.0,0.0,0.0,0.0,5
-76095.18,-26860.455,-84205.935,11159.145,0.0,0.0,0.0,0.0,5
-76084.335,-26857.53,-84097.44,11196.495,0.0,0.0,0.0,0.0,5
-76146.255,-26863.065,-84213.855,11197.575,0.0,0.0,0.0,0.0,5
-76169.475,-26866.98,-84337.155,11145.15,0.0,0.0,0.0,0.0,5
-76215.78,-26868.78,-84447.63,11081.07,0.0,0.0,0.0,0.0,5
-76233.015,-26865.045,-84402.18,11093.58,0.0,0.0,0.0,0.0,5
-76225.59,-26862.66,-84314.745,11157.57,0.0,0.0,0.0,0.0,5
-76240.62,-26867.745,-84509.55,11098.8,0.0,0.0,0.0,0.0,5
-76216.32,-26868.015,-84472.92,11088.81,0.0,0.0,0.0,0.0,5
-76113.27,-26856.54,-84169.17,11178.63,0.0,0.0,0.0,0.0,5
-76109.715,-26857.215,-84178.53,11200.41,0.0,0.0,0.0,0.0,5
-76104.27,-26857.17,-84229.92,11211.705,0.0,0.0,0.0,0.0,5
-76099.68,-26857.35,-84258.495,11225.205,0.0,0.0,0.0,0.0,5
-76154.715,-26862.21,-84315.42,11189.97,0.0,0.0,0.0,0.0,5
-76225.23,-26867.565,-84344.895,11120.4,0.0,0.0,0.0,0.0,5
-76252.32,-26867.07,-84345.255,11123.82,0.0,0.0,0.0,0.0,5
-76254.615,-26869.815,-84380.67,11129.895,0.0,0.0,0.0,0.0,5
-76209.12,-26871.03,-84396.69,11121.525,0.0,0.0,0.0,0.0,5
-76144.815,-26870.49,-84361.995,11127.42,0.0,0.0,0.0,0.0,5
-76200.435,-26877.105,-84399.03,11117.34,0.0,0.0,0.0,0.0,5
-76250.205,-26885.7,-84457.53,11084.805,0.0,0.0,0.0,0.0,5
-76215.645,-26885.745,-84428.775,11092.77,0.0,0.0,0.0,0.0,5
-76191.975,-26883.855,-84339.45,11149.065,0.0,0.0,0.0,0.0,5
-76207.68,-26889.345,-84456.855,11098.08,0.0,0.0,0.0,0.0,5
-76136.895,-26885.97,-84227.58,11168.19,0.0,0.0,0.0,0.0,5
-76133.34,-26886.015,-84221.28,11180.925,0.0,0.0,0.0,0.0,5
-76153.815,-26888.265,-84230.685,11171.52,0.0,0.0,0.0,0.0,5
-76155.525,-26888.04,-84192.03,11180.43,0.0,0.0,0.0,0.0,5
-76187.745,-26892.81,-84290.985,11151.81,0.0,0.0,0.0,0.0,5
-76198.995,-26894.475,-84359.43,11132.82,0.0,0.0,0.0,0.0,5
-76217.67,-26896.77,-84446.28,11116.08,0.0,0.0,0.0,0.0,5
-76189.005,-26893.44,-84382.02,11165.085,0.0,0.0,0.0,0.0,5
-76154.805,-26890.515,-84245.895,11216.34,0.0,0.0,0.0,0.0,5
-76128.435,-26890.155,-84190.905,11223.27,0.0,0.0,0.0,0.0,5
-76167.585,-26892.63,-84289.725,11174.76,0.0,0.0,0.0,0.0,5
-76243.5,-26895.105,-84468.465,11097.675,0.0,0.0,0.0,0.0,5
-76227.48,-26895.825,-84540.87,11054.97,0.0,0.0,0.0,0.0,5
-76120.92,-26886.195,-84331.665,11132.865,0.0,0.0,0.0,0.0,5
-76130.055,-26881.56,-84170.52,11236.32,0.0,0.0,0.0,0.0,5
-76171.23,-26884.305,-84238.605,11197.44,0.0,0.0,0.0,0.0,5
-76136.58,-26884.44,-84235.185,11192.58,0.0,0.0,0.0,0.0,5
-76163.355,-26885.88,-84202.965,11221.74,0.0,0.0,0.0,0.0,5
-76182.705,-26891.865,-84309.615,11155.86,0.0,0.0,0.0,0.0,5
-76177.62,-26894.745,-84433.68,11070.18,0.0,0.0,0.0,0.0,5
-76236.57,-26893.305,-84495.465,11053.125,0.0,0.0,0.0,0.0,5
-76224.78,-26885.115,-84400.965,11093.085,0.0,0.0,0.0,0.0,5
-76190.265,-26880.615,-84277.26,11159.865,0.0,0.0,0.0,0.0,5
-76213.44,-26881.02,-84284.415,11175.75,0.0,0.0,0.0,0.0,5
-76182.615,-26883.405,-84334.365,11129.265,0.0,0.0,0.0,0.0,5
-76175.73,-26883.18,-84297.78,11141.28,0.0,0.0,0.0,0.0,5
-76223.79,-26888.445,-84387.645,11134.665,0.0,0.0,0.0,0.0,5
-76271.49,-26893.62,-84518.685,11084.76,0.0,0.0,0.0,0.0,5
-76226.58,-26890.74,-84444.75,11092.005,0.0,0.0,0.0,0.0,5
-76132.125,-26883.585,-84256.38,11146.23,0.0,0.0,0.0,0.0,5
-76146.075,-26875.17,-84193.47,11201.085,0.0,0.0,0.0,0.0,5
-76189.635,-26869.95,-84260.115,11182.86,0.0,0.0,0.0,0.0,5
-76212.54,-26875.44,-84421.305,11133.045,0.0,0.0,0.0,0.0,5
-76230.315,-26880.84,-84553.335,11072.97,0.0,0.0,0.0,0.0,5
-76246.02,-26878.95,-84417.93,11120.175,0.0,0.0,0.0,0.0,5
-76137.21,-26868.195,-84175.02,11181.42,0.0,0.0,0.0,0.0,5
-76156.605,-26872.92,-84261.42,11172.015,0.0,0.0,0.0,0.0,5
-76177.125,-26874.18,-84257.28,11186.235,0.0,0.0,0.0,0.0,5
-76194.495,-26876.34,-84290.265,11155.05,0.0,0.0,0.0,0.0,5
-76210.245,-26876.16,-84307.77,11153.655,0.0,0.0,0.0,0.0,5
-76228.47,-26873.01,-84398.67,11112.345,0.0,0.0,0.0,0.0,5
-76191.795,-26867.7,-84433.68,11109.51,0.0,0.0,0.0,0.0,5
-76193.505,-26867.88,-84404.205,11149.11,0.0,0.0,0.0,0.0,5
-76178.475,-26867.115,-84396.465,11163.645,0.0,0.0,0.0,0.0,5
-76184.505,-26868.24,-84400.335,11138.355,0.0,0.0,0.0,0.0,5
-76171.005,-26861.715,-84213.135,11215.395,0.0,0.0,0.0,0.0,5
-76198.905,-26863.47,-84241.305,11212.065,0.0,0.0,0.0,0.0,5
-76134.915,-26865.09,-84281.85,11131.605,0.0,0.0,0.0,0.0,5
-76132.98,-26867.79,-84221.37,11151.18,0.0,0.0,0.0,0.0,5
-76241.43,-26871.12,-84303.765,11168.955,0.0,0.0,0.0,0.0,5
-76253.49,-26868.69,-84427.38,11101.095,0.0,0.0,0.0,0.0,5
-76247.775,-26867.97,-84534.48,11074.23,0.0,0.0,0.0,0.0,5
-76242.645,-26869.815,-84507.84,11072.61,0.0,0.0,0.0,0.0,5
-76202.775,-26860.545,-84242.61,11172.06,0.0,0.0,0.0,0.0,5
-76187.52,-26856.405,-84122.19,11238.705,0.0,0.0,0.0,0.0,5
-76172.805,-26858.79,-84291.075,11165.49,0.0,0.0,0.0,0.0,5
-76145.31,-26856.405,-84315.645,11141.37,0.0,0.0,0.0,0.0,5
-76149.855,-26853.705,-84276.54,11165.265,0.0,0.0,0.0,0.0,5
-76144.77,-26854.335,-84317.985,11164.5,0.0,0.0,0.0,0.0,5
-76194.09,-26859.24,-84469.41,11131.56,0.0,0.0,0.0,0.0,5
-76325.085,-26874.135,-84663.99,11092.005,0.0,0.0,0.0,0.0,5
-76303.215,-26872.965,-84600.855,11030.175,0.0,0.0,0.0,0.0,5
-76176.36,-26856.495,-84145.905,11184.345,0.0,0.0,0.0,0.0,5
-76125.51,-26850.915,-84062.79,11253.78,0.0,0.0,0.0,0.0,5
-76133.16,-26857.98,-84174.525,11222.82,0.0,0.0,0.0,0.0,5
-76154.355,-26862.885,-84267.855,11177.595,0.0,0.0,0.0,0.0,5
-76217.355,-26870.895,-84410.37,11127.645,0.0,0.0,0.0,0.0,5
-76237.155,-26872.245,-84458.88,11103.03,0.0,0.0,0.0,0.0,5
-76183.74,-26866.575,-84300.795,11129.76,0.0,0.0,0.0,0.0,5
-76205.475,-26864.91,-84214.125,11212.785,0.0,0.0,0.0,0.0,5
-76172.4,-26865.27,-84275.415,11191.32,0.0,0.0,0.0,0.0,5
-76111.695,-26859.195,-84248.73,11188.935,0.0,0.0,0.0,0.0,5
-76165.74,-26862.795,-84350.43,11160.27,0.0,0.0,0.0,0.0,5
-76235.715,-26870.265,-84520.395,11079.72,0.0,0.0,0.0,0.0,5
-76229.1,-26869.185,-84444.705,11104.47,0.0,0.0,0.0,0.0,5
-76189.365,-26863.965,-84274.83,11151.945,0.0,0.0,0.0,0.0,5
-76164.975,-26862.975,-84228.66,11163.375,0.0,0.0,0.0,0.0,5
-76195.935,-26864.865,-84273.255,11157.435,0.0,0.0,0.0,0.0,5
-76243.905,-26871.435,-84418.605,11105.1,0.0,0.0,0.0,0.0,5
-76229.28,-26870.49,-84536.28,11063.925,0.0,0.0,0.0,0.0,5
-76163.13,-26856.315,-84413.565,11096.055,0.0,0.0,0.0,0.0,5
-76172.04,-26844.705,-84199.05,11176.02,0.0,0.0,0.0,0.0,5
-76225.005,-26848.08,-84256.875,11172.105,0.0,0.0,0.0,0.0,5
-76251.285,-26849.43,-84298.545,11159.55,0.0,0.0,0.0,0.0,5
-76236.12,-26851.68,-84369.105,11128.68,0.0,0.0,0.0,0.0,5
-76234.275,-26854.335,-84482.1,11127.825,0.0,0.0,0.0,0.0,5
-76201.65,-26856.99,-84607.83,11083.185,0.0,0.0,0.0,0.0,5
-76138.065,-26846.505,-84381.165,11150.145,0.0,0.0,0.0,0.0,5
-76106.52,-26838.855,-84171.06,11222.055,0.0,0.0,0.0,0.0,5
-76174.47,-26842.59,-84231.45,11192.22,0.0,0.0,0.0,0.0,5
-76235.04,-26840.34,-84286.62,11156.4,0.0,0.0,0.0,0.0,5
-76254.705,-26837.46,-84408.93,11111.355,0.0,0.0,0.0,0.0,5
-76239.63,-26836.155,-84357.45,11139.48,0.0,0.0,0.0,0.0,5
-76176.54,-26831.655,-84185.82,11200.185,0.0,0.0,0.0,0.0,5
-76186.755,-26834.67,-84202.11,11201.535,0.0,0.0,0.0,0.0,5
-76195.935,-26841.195,-84275.73,11173.77,0.0,0.0,0.0,0.0,5
-76180.23,-26847.81,-84306.33,11145.96,0.0,0.0,0.0,0.0,5
-76172.805,-26849.835,-84323.475,11143.17,0.0,0.0,0.0,0.0,5
-76191.615,-26853.795,-84377.475,11151.09,0.0,0.0,0.0,0.0,5
-76222.8,-26854.785,-84420.495,11139.975,0.0,0.0,0.0,0.0,5
-76218.84,-26854.56,-84384.27,11123.235,0.0,0.0,0.0,0.0,5
-76222.89,-26853.66,-84328.245,11141.01,0.0,0.0,0.0,0.0,5
-76192.56,-26853.84,-84335.355,11149.245,0.0,0.0,0.0,0.0,5
-76215.465,-26860.635,-84428.595,11120.22,0.0,0.0,0.0,0.0,5
-76220.82,-26865.63,-84483.315,11106.945,0.0,0.0,0.0,0.0,5
-76236.255,-26864.64,-84423.24,11130.795,0.0,0.0,0.0,0.0,5
-76201.83,-26859.645,-84272.13,11141.415,0.0,0.0,0.0,0.0,5
-76218.57,-26854.335,-84219.075,11183.22,0.0,0.0,0.0,0.0,5
-76240.62,-26858.79,-84382.695,11136.105,0.0,0.0,0.0,0.0,5
-76241.295,-26861.22,-84451.455,11141.325,0.0,0.0,0.0,0.0,5
-76169.115,-26854.515,-84354.12,11159.37,0.0,0.0,0.0,0.0,5
-76147.245,-26845.875,-84248.37,11156.58,0.0,0.0,0.0,0.0,5
-76172.355,-26846.145,-84201.615,11171.61,0.0,0.0,0.0,0.0,5
-76194.585,-26845.74,-84220.515,11186.685,0.0,0.0,0.0,0.0,5
-76218.165,-26850.33,-84345.705,11150.91,0.0,0.0,0.0,0.0,5
-76216.185,-26847.54,-84343.365,11145.735,0.0,0.0,0.0,0.0,5
-76179.87,-26844.57,-84296.7,11151.72,0.0,0.0,0.0,0.0,5
-76190.13,-26845.38,-84292.92,11171.52,0.0,0.0,0.0,0.0,5
-76267.395,-26854.38,-84422.07,11136.87,0.0,0.0,0.0,0.0,5
-76257.0,-26854.965,-84541.41,11103.93,0.0,0.0,0.0,0.0,5
-76203.99,-26841.6,-84518.865,11100.06,0.0,0.0,0.0,0.0,5
-76194.36,-26830.665,-84358.08,11121.795,0.0,0.0,0.0,0.0,5
-76228.155,-26828.955,-84233.835,11169.135,0.0,0.0,0.0,0.0,5
-76253.04,-26830.305,-84294.675,11178.945,0.0,0.0,0.0,0.0,5
-76203.315,-26830.935,-84263.13,11171.7,0.0,0.0,0.0,0.0,5
-76144.185,-26830.305,-84204.765,11173.365,0.0,0.0,0.0,0.0,5
-76166.73,-26835.93,-84308.895,11147.58,0.0,0.0,0.0,0.0,5
-76219.245,-26839.26,-84416.805,11119.32,0.0,0.0,0.0,0.0,5
-76259.205,-26844.3,-84536.19,11072.52,0.0,0.0,0.0,0.0,5
-76273.695,-26844.615,-84520.44,11090.97,0.0,0.0,0.0,0.0,5
-76244.985,-26837.145,-84419.685,11128.5,0.0,0.0,0.0,0.0,5
-76180.68,-26825.985,-84259.44,11164.905,0.0,0.0,0.0,0.0,5
-76248.36,-26830.215,-84319.875,11155.59,0.0,0.0,0.0,0.0,5
-76220.46,-26830.665,-84225.96,11183.085,0.0,0.0,0.0,0.0,5
-76166.64,-26834.22,-84285.09,11169.0,0.0,0.0,0.0,0.0,5
-76170.825,-26838.765,-84450.195,11112.03,0.0,0.0,0.0,0.0,5
-76187.745,-26839.98,-84439.845,11111.67,0.0,0.0,0.0,0.0,5
-76185.855,-26836.2,-84238.65,11162.34,0.0,0.0,0.0,0.0,5
-76237.92,-26837.19,-84180.015,11229.03,0.0,0.0,0.0,0.0,5
-76190.85,-26838.63,-84269.07,11186.73,0.0,0.0,0.0,0.0,5
-76183.65,-26835.795,-84312.72,11165.355,0.0,0.0,0.0,0.0,5
-76183.785,-26835.39,-84393.405,11134.98,0.0,0.0,0.0,0.0,5
-76222.44,-26842.14,-84534.255,11118.06,0.0,0.0,0.0,0.0,5
-76238.82,-26841.24,-84506.94,11084.985,0.0,0.0,0.0,0.0,5
-76147.695,-26832.24,-84241.08,11132.235,0.0,0.0,0.0,0.0,5
-76195.305,-26831.655,-84153.645,11194.785,0.0,0.0,0.0,0.0,5
-76323.69,-26842.5,-84335.985,11162.385,0.0,0.0,0.0,0.0,5
-76238.055,-26841.42,-84346.11,11125.035,0.0,0.0,0.0,0.0,5
-76191.48,-26837.46,-84201.12,11191.635,0.0,0.0,0.0,0.0,5
-76201.425,-26841.96,-84293.01,11174.67,0.0,0.0,0.0,0.0,5
-76190.445,-26835.705,-84304.53,11175.255,0.0,0.0,0.0,0.0,5
-76165.92,-26830.755,-84400.29,11120.175,0.0,0.0,0.0,0.0,5
-76265.325,-26837.055,-84542.4,11096.775,0.0,0.0,0.0,0.0,5
-76249.215,-26836.83,-84537.855,11072.34,0.0,0.0,0.0,0.0,5
-76175.415,-26827.695,-84268.17,11142.585,0.0,0.0,0.0,0.0,5
-76174.83,-26824.545,-84161.52,11216.385,0.0,0.0,0.0,0.0,5
-76220.145,-26834.085,-84338.82,11172.42,0.0,0.0,0.0,0.0,5
-76221.585,-26834.805,-84322.755,11165.085,0.0,0.0,0.0,0.0,5
-76205.52,-26835.165,-84268.305,11165.58,0.0,0.0,0.0,0.0,5
-76183.92,-26834.895,-84259.53,11161.71,0.0,0.0,0.0,0.0,5
-76177.89,-26831.97,-84340.665,11146.455,0.0,0.0,0.0,0.0,5
-76245.93,-26833.275,-84411.45,11127.465,0.0,0.0,0.0,0.0,5
-76227.795,-26833.86,-84368.79,11120.355,0.0,0.0,0.0,0.0,5
-76249.89,-26831.34,-84299.67,11171.385,0.0,0.0,0.0,0.0,5
-76213.8,-26833.14,-84336.48,11165.58,0.0,0.0,0.0,0.0,5
-76205.655,-26837.325,-84417.57,11142.405,0.0,0.0,0.0,0.0,5
-76213.35,-26843.445,-84540.555,11094.345,0.0,0.0,0.0,0.0,5
-76269.87,-26841.78,-84472.56,11112.705,0.0,0.0,0.0,0.0,5
-76232.475,-26833.77,-84225.33,11157.39,0.0,0.0,0.0,0.0,5
-76243.59,-26833.275,-84185.73,11194.155,0.0,0.0,0.0,0.0,5
-76219.83,-26835.12,-84254.985,11165.265,0.0,0.0,0.0,0.0,5
-76217.49,-26833.095,-84280.32,11166.39,0.0,0.0,0.0,0.0,5
-76215.24,-26834.22,-84328.515,11156.22,0.0,0.0,0.0,0.0,5
-76180.455,-26839.44,-84465.225,11099.385,0.0,0.0,0.0,0.0,5
-76227.39,-26849.25,-84658.32,11037.645,0.0,0.0,0.0,0.0,5
-76298.76,-26851.905,-84677.76,11008.935,0.0,0.0,0.0,0.0,5
-76150.08,-26835.03,-84217.59,11148.75,0.0,0.0,0.0,0.0,5
-76164.57,-26831.88,-84052.53,11256.525,0.0,0.0,0.0,0.0,5
-76206.285,-26838.945,-84148.11,11229.255,0.0,0.0,0.0,0.0,5
-76217.67,-26840.25,-84258.09,11179.98,0.0,0.0,0.0,0.0,5
-76233.915,-26844.84,-84343.545,11168.955,0.0,0.0,0.0,0.0,5
-76240.215,-26850.42,-84490.02,11124.81,0.0,0.0,0.0,0.0,5
-76257.405,-26853.795,-84575.115,11087.775,0.0,0.0,0.0,0.0,5
-76262.85,-26850.96,-84439.89,11102.085,0.0,0.0,0.0,0.0,5
-76179.51,-26848.17,-84344.49,11127.24,0.0,0.0,0.0,0.0,5
-76141.26,-26840.205,-84153.87,11204.28,0.0,0.0,0.0,0.0,5
-76147.83,-26837.865,-84094.875,11269.53,0.0,0.0,0.0,0.0,5
-76195.44,-26844.705,-84292.605,11179.845,0.0,0.0,0.0,0.0,5
-76288.23,-26854.65,-84476.07,11104.065,0.0,0.0,0.0,0.0,5
-76283.415,-26858.115,-84520.62,11067.93,0.0,0.0,0.0,0.0,5
-76187.295,-26849.925,-84287.79,11115.72,0.0,0.0,0.0,0.0,5
-76202.865,-26845.065,-84204.18,11177.28,0.0,0.0,0.0,0.0,5
-76231.35,-26850.915,-84325.545,11133.585,0.0,0.0,0.0,0.0,5
-76257.99,-26855.64,-84398.445,11118.735,0.0,0.0,0.0,0.0,5
-76262.805,-26862.525,-84480.705,11103.84,0.0,0.0,0.0,0.0,5
-76239.585,-26862.39,-84416.265,11124.945,0.0,0.0,0.0,0.0,5
-76181.49,-26859.24,-84251.475,11207.295,0.0,0.0,0.0,0.0,5
-76219.515,-26863.29,-84300.525,11208.465,0.0,0.0,0.0,0.0,5
-76245.39,-26872.2,-84436.425,11122.425,0.0,0.0,0.0,0.0,5
-76211.64,-26867.475,-84248.865,11154.78,0.0,0.0,0.0,0.0,5
-76277.79,-26873.46,-84309.39,11158.92,0.0,0.0,0.0,0.0,5
-76256.955,-26881.245,-84480.84,11092.815,0.0,0.0,0.0,0.0,5
-76280.49,-26885.745,-84500.1,11082.78,0.0,0.0,0.0,0.0,5
-76248.54,-26881.155,-84388.365,11123.595,0.0,0.0,0.0,0.0,5
-76218.39,-26877.42,-84322.395,11155.05,0.0,0.0,0.0,0.0,5
-76153.995,-26874.225,-84203.1,11196.63,0.0,0.0,0.0,0.0,5
-76203.585,-26883.54,-84336.165,11186.82,0.0,0.0,0.0,0.0,5
-76190.4,-26887.5,-84506.355,11116.26,0.0,0.0,0.0,0.0,5
-76202.685,-26887.545,-84405.195,11164.32,0.0,0.0,0.0,0.0,5
-76176.405,-26882.19,-84173.535,11175.705,0.0,0.0,0.0,0.0,5
-76202.415,-26885.295,-84228.48,11182.005,0.0,0.0,0.0,0.0,5
-76217.94,-26885.52,-84299.895,11162.34,0.0,0.0,0.0,0.0,5
-76261.77,-26886.33,-84320.145,11161.935,0.0,0.0,0.0,0.0,5
-76234.365,-26887.815,-84303.405,11164.545,0.0,0.0,0.0,0.0,5
-76216.725,-26892.765,-84380.4,11140.29,0.0,0.0,0.0,0.0,5
-76244.58,-26896.185,-84471.705,11120.265,0.0,0.0,0.0,0.0,5
-76222.575,-26896.455,-84458.43,11084.67,0.0,0.0,0.0,0.0,5
-76221.135,-26892.405,-84281.355,11177.145,0.0,0.0,0.0,0.0,5
-76215.825,-26892.315,-84198.195,11209.905,0.0,0.0,0.0,0.0,5
-76232.34,-26897.49,-84320.64,11161.395,0.0,0.0,0.0,0.0,5
-76254.84,-26902.755,-84462.615,11113.56,0.0,0.0,0.0,0.0,5
-76270.995,-26907.525,-84626.46,11050.875,0.0,0.0,0.0,0.0,5
-76230.315,-26901.63,-84467.925,11096.055,0.0,0.0,0.0,0.0,5
-76188.33,-26890.965,-84272.58,11146.635,0.0,0.0,0.0,0.0,5
-76202.91,-26888.85,-84214.08,11195.865,0.0,0.0,0.0,0.0,5
-76196.25,-26893.89,-84255.525,11190.375,0.0,0.0,0.0,0.0,5
-76223.52,-26901.27,-84382.605,11152.35,0.0,0.0,0.0,0.0,5
-76249.53,-26906.67,-84590.1,11063.295,0.0,0.0,0.0,0.0,5
-76200.255,-26899.65,-84429.135,11111.13,0.0,0.0,0.0,0.0,5
-76173.57,-26892.945,-84255.075,11177.145,0.0,0.0,0.0,0.0,5
-76191.885,-26892.27,-84170.61,11238.93,0.0,0.0,0.0,0.0,5
-76228.92,-26895.015,-84346.875,11176.02,0.0,0.0,0.0,0.0,5
-76174.56,-26893.215,-84304.215,11166.255,0.0,0.0,0.0,0.0,5
-76246.83,-26899.605,-84345.21,11166.21,0.0,0.0,0.0,0.0,5
-76361.175,-26910.315,-84488.265,11140.335,0.0,0.0,0.0,0.0,5
-76311.27,-26912.925,-84538.665,11076.525,0.0,0.0,0.0,0.0,5
-76136.94,-26899.02,-84153.285,11184.3,0.0,0.0,0.0,0.0,5
-76081.59,-26895.24,-84078.405,11245.365,0.0,0.0,0.0,0.0,5
-76119.75,-26897.94,-84161.16,11240.775,0.0,0.0,0.0,0.0,5
-76193.415,-26900.055,-84260.34,11191.41,0.0,0.0,0.0,0.0,5
-76241.88,-26906.67,-84335.49,11141.55,0.0,0.0,0.0,0.0,5
-76269.555,-26912.43,-84463.38,11102.13,0.0,0.0,0.0,0.0,5
-76269.69,-26914.23,-84489.39,11108.7,0.0,0.0,0.0,0.0,5
-76247.415,-26907.12,-84330.045,11155.545,0.0,0.0,0.0,0.0,5
-76253.13,-26905.23,-84253.995,11202.66,0.0,0.0,0.0,0.0,5
-76233.33,-26908.965,-84350.205,11160.81,0.0,0.0,0.0,0.0,5
-76156.65,-26905.59,-84280.995,11185.02,0.0,0.0,0.0,0.0,5
-76211.865,-26905.05,-84272.4,11184.435,0.0,0.0,0.0,0.0,5
-76233.555,-26908.02,-84366.045,11114.46,0.0,0.0,0.0,0.0,5
-76238.955,-26910.315,-84394.71,11121.165,0.0,0.0,0.0,0.0,5
-76260.87,-26915.49,-84450.285,11121.345,0.0,0.0,0.0,0.0,5
-76268.295,-26914.005,-84454.695,11107.035,0.0,0.0,0.0,0.0,5
-76191.615,-26907.12,-84288.105,11139.345,0.0,0.0,0.0,0.0,5
-76195.89,-26910.0,-84332.52,11143.575,0.0,0.0,0.0,0.0,5
-76221.9,-26916.3,-84434.445,11131.155,0.0,0.0,0.0,0.0,5
-76226.625,-26915.985,-84458.97,11128.32,0.0,0.0,0.0,0.0,5
-76192.065,-26915.13,-84412.26,11127.015,0.0,0.0,0.0,0.0,5
-76178.205,-26910.405,-84255.12,11184.435,0.0,0.0,0.0,0.0,5
-76201.245,-26909.73,-84191.355,11204.415,0.0,0.0,0.0,0.0,5
-76220.55,-26908.92,-84271.455,11175.48,0.0,0.0,0.0,0.0,5
-76190.22,-26904.375,-84277.62,11172.105,0.0,0.0,0.0,0.0,5
-76227.435,-26901.495,-84298.32,11182.365,0.0,0.0,0.0,0.0,5
-76288.725,-26905.14,-84401.235,11158.875,0.0,0.0,0.0,0.0,5
-76329.945,-26910.225,-84589.2,11085.12,0.0,0.0,0.0,0.0,5
-76338.945,-26912.385,-84664.44,11050.74,0.0,0.0,0.0,0.0,5
-76279.32,-26907.435,-84456.27,11083.86,0.0,0.0,0.0,0.0,5
-76196.295,-26899.605,-84175.155,11184.39,0.0,0.0,0.0,0.0,5
-76162.725,-26898.48,-84161.52,11214.405,0.0,0.0,0.0,0.0,5
-76109.76,-26898.93,-84162.465,11213.28,0.0,0.0,0.0,0.0,5
-76166.865,-26903.34,-84285.315,11179.665,0.0,0.0,0.0,0.0,5
-76219.965,-26908.335,-84325.68,11172.825,0.0,0.0,0.0,0.0,5
-76212.18,-26908.965,-84372.93,11150.505,0.0,0.0,0.0,0.0,5
-76248.315,-26912.7,-84464.37,11127.735,0.0,0.0,0.0,0.0,5
-76266.36,-26914.59,-84469.545,11103.48,0.0,0.0,0.0,0.0,5
-76188.33,-26907.705,-84179.52,11196.54,0.0,0.0,0.0,0.0,5
-76219.695,-26909.46,-84208.275,11219.895,0.0,0.0,0.0,0.0,5
-76252.86,-26914.77,-84321.81,11175.345,0.0,0.0,0.0,0.0,5
-76292.865,-26916.795,-84432.33,11152.08,0.0,0.0,0.0,0.0,5
-76240.755,-26918.955,-84542.49,11097.27,0.0,0.0,0.0,0.0,5
-76197.735,-26913.915,-84451.86,11102.445,0.0,0.0,0.0,0.0,5
-76219.425,-26909.955,-84306.825,11144.295,0.0,0.0,0.0,0.0,5
-76213.08,-26906.49,-84274.92,11149.11,0.0,0.0,0.0,0.0,5
-76250.565,-26907.21,-84298.59,11187.72,0.0,0.0,0.0,0.0,5
-76223.52,-26908.11,-84316.95,11167.56,0.0,0.0,0.0,0.0,5
-76173.12,-26904.24,-84206.745,11193.705,0.0,0.0,0.0,0.0,5
-76155.075,-26903.79,-84259.89,11174.625,0.0,0.0,0.0,0.0,5
-76202.055,-26907.795,-84305.115,11162.475,0.0,0.0,0.0,0.0,5
-76211.505,-26906.445,-84292.47,11176.11,0.0,0.0,0.0,0.0,5
-76212.36,-26908.965,-84328.47,11155.005,0.0,0.0,0.0,0.0,5
-76207.005,-26909.865,-84338.865,11141.64,0.0,0.0,0.0,0.0,5
-76178.16,-26910.495,-84332.295,11144.61,0.0,0.0,0.0,0.0,5
-76148.415,-26909.055,-84299.04,11172.87,0.0,0.0,0.0,0.0,5
-76202.55,-26912.07,-84307.005,11194.74,0.0,0.0,0.0,0.0,5
-76254.705,-26914.455,-84381.21,11158.335,0.0,0.0,0.0,0.0,5
-76251.555,-26920.62,-84511.755,11113.155,0.0,0.0,0.0,0.0,5
-76310.505,-26923.32,-84503.43,11128.635,0.0,0.0,0.0,0.0,5
-76324.725,-26919.09,-84338.505,11156.04,0.0,0.0,0.0,0.0,5
-76198.41,-26913.42,-84291.84,11141.64,0.0,0.0,0.0,0.0,5
-76138.83,-26911.71,-84255.615,11165.895,0.0,0.0,0.0,0.0,5
-76151.88,-26913.015,-84261.555,11187.855,0.0,0.0,0.0,0.0,5
-76166.325,-26914.365,-84227.715,11234.655,0.0,0.0,0.0,0.0,5
-76181.58,-26913.87,-84286.215,11181.285,0.0,0.0,0.0,0.0,5
-76200.165,-26913.96,-84366.135,11136.465,0.0,0.0,0.0,0.0,5
-76240.755,-26916.57,-84424.545,11107.125,0.0,0.0,0.0,0.0,5
-76283.145,-26918.82,-84382.92,11133.63,0.0,0.0,0.0,0.0,5
-76296.15,-26919.27,-84381.975,11153.205,0.0,0.0,0.0,0.0,5
-76309.605,-26925.57,-84497.985,11123.91,0.0,0.0,0.0,0.0,5
-76343.04,-26930.565,-84636.855,11077.065,0.0,0.0,0.0,0.0,5
-76322.7,-26926.38,-84433.905,11152.08,0.0,0.0,0.0,0.0,5
-76284.315,-26919.45,-84178.395,11243.835,0.0,0.0,0.0,0.0,5
-76214.79,-26922.735,-84178.125,11206.98,0.0,0.0,0.0,0.0,5
-76120.38,-26924.265,-84234.915,11156.355,0.0,0.0,0.0,0.0,5
-76109.355,-26924.805,-84220.02,11172.375,0.0,0.0,0.0,0.0,5
-76127.94,-26924.58,-84261.06,11189.655,0.0,0.0,0.0,0.0,5
-76159.53,-26930.07,-84422.43,11139.57,0.0,0.0,0.0,0.0,5
-76234.815,-26940.15,-84556.17,11090.61,0.0,0.0,0.0,0.0,5
-76227.705,-26943.12,-84476.925,11085.93,0.0,0.0,0.0,0.0,5
-76256.595,-26932.635,-84235.68,11205.81,0.0,0.0,0.0,0.0,5
-76257.72,-26929.98,-84170.655,11235.15,0.0,0.0,0.0,0.0,5
-76227.075,-26931.645,-84202.875,11230.92,0.0,0.0,0.0,0.0,5
-76333.23,-26937.27,-84277.44,11246.22,0.0,0.0,0.0,0.0,5
-76239.45,-26934.795,-84424.32,11134.935,0.0,0.0,0.0,0.0,5
-76205.655,-26936.37,-84552.975,11081.61,0.0,0.0,0.0,0.0,5
-76196.115,-26937.405,-84608.145,11045.295,0.0,0.0,0.0,0.0,5
-76109.67,-26926.74,-84279.96,11120.13,0.0,0.0,0.0,0.0,5
-76099.545,-26918.865,-84050.955,11247.345,0.0,0.0,0.0,0.0,5
-76134.195,-26922.375,-84133.08,11236.005,0.0,0.0,0.0,0.0,5
-76223.97,-26928.045,-84260.475,11200.86,0.0,0.0,0.0,0.0,5
-76292.325,-26938.395,-84494.655,11109.69,0.0,0.0,0.0,0.0,5
-76256.865,-26941.725,-84618.495,11053.215,0.0,0.0,0.0,0.0,5
-76228.74,-26943.975,-84437.28,11107.26,0.0,0.0,0.0,0.0,5
-76176.45,-26936.055,-84096.54,11242.755,0.0,0.0,0.0,0.0,5
-76196.745,-26940.42,-84156.615,11244.6,0.0,0.0,0.0,0.0,5
-76309.155,-26944.785,-84240.945,11258.685,0.0,0.0,0.0,0.0,5
-76270.635,-26948.25,-84365.46,11176.02,0.0,0.0,0.0,0.0,5
-76181.445,-26948.655,-84388.95,11155.86,0.0,0.0,0.0,0.0,5
-76200.93,-26953.155,-84429.495,11130.885,0.0,0.0,0.0,0.0,5
-76184.64,-26947.755,-84291.165,11169.54,0.0,0.0,0.0,0.0,5
-76197.735,-26946.945,-84231.81,11220.66,0.0,0.0,0.0,0.0,5
-76230.63,-26952.39,-84341.655,11175.885,0.0,0.0,0.0,0.0,5
-76205.97,-26958.195,-84337.29,11140.38,0.0,0.0,0.0,0.0,5
-76175.01,-26955.45,-84274.38,11164.005,0.0,0.0,0.0,0.0,5
-76205.16,-26957.205,-84288.645,11186.595,0.0,0.0,0.0,0.0,5
-76218.12,-26958.465,-84311.055,11183.49,0.0,0.0,0.0,0.0,5
-76237.335,-26958.915,-84330.675,11179.89,0.0,0.0,0.0,0.0,5
-76218.345,-26958.375,-84337.605,11175.03,0.0,0.0,0.0,0.0,5
-76222.8,-26961.525,-84375.225,11166.795,0.0,0.0,0.0,0.0,5
-76266.315,-26963.1,-84398.94,11159.82,0.0,0.0,0.0,0.0,5
-76274.145,-26967.195,-84484.305,11100.87,0.0,0.0,0.0,0.0,5
-76285.845,-26969.04,-84562.02,11060.955,0.0,0.0,0.0,0.0,5
-76180.77,-26962.515,-84338.865,11108.205,0.0,0.0,0.0,0.0,5
-76143.015,-26953.875,-84108.285,11214.72,0.0,0.0,0.0,0.0,5
-76209.795,-26960.265,-84273.795,11177.91,0.0,0.0,0.0,0.0,5
-76252.68,-26961.885,-84319.38,11161.125,0.0,0.0,0.0,0.0,5
-76241.43,-26959.995,-84316.455,11169.585,0.0,0.0,0.0,0.0,5
-76256.73,-26959.5,-84329.055,11183.625,0.0,0.0,0.0,0.0,5
-76250.295,-26960.445,-84321.405,11187.495,0.0,0.0,0.0,0.0,5
-76228.38,-26961.345,-84352.68,11148.21,0.0,0.0,0.0,0.0,5
-76227.12,-26962.74,-84361.68,11143.98,0.0,0.0,0.0,0.0,5
-76234.59,-26963.775,-84354.165,11157.75,0.0,0.0,0.0,0.0,5
-76237.47,-26968.32,-84340.755,11184.84,0.0,0.0,0.0,0.0,5
-76228.785,-26967.96,-84346.38,11182.86,0.0,0.0,0.0,0.0,5
-76210.38,-26966.97,-84331.71,11185.425,0.0,0.0,0.0,0.0,5
-76210.875,-26966.97,-84384.945,11153.655,0.0,0.0,0.0,0.0,5
-76238.505,-26971.605,-84519.315,11114.73,0.0,0.0,0.0,0.0,5
-76243.5,-26970.93,-84486.555,11118.87,0.0,0.0,0.0,0.0,5
-76202.82,-26964.18,-84247.695,11190.78,0.0,0.0,0.0,0.0,5
-76242.105,-26965.08,-84201.615,11214.405,0.0,0.0,0.0,0.0,5
-76223.7,-26969.985,-84266.145,11181.51,0.0,0.0,0.0,0.0,5
-76195.35,-26967.42,-84273.3,11181.06,0.0,0.0,0.0,0.0,5
-76204.98,-26966.205,-84305.115,11166.84,0.0,0.0,0.0,0.0,5
-76220.91,-26964.945,-84347.595,11124.72,0.0,0.0,0.0,0.0,5
-76225.545,-26964.765,-84357.405,11123.235,0.0,0.0,0.0,0.0,5
-76226.22,-26963.145,-84357.945,11134.62,0.0,0.0,0.0,0.0,5
-76234.455,-26964.09,-84364.29,11137.86,0.0,0.0,0.0,0.0,5
-76231.665,-26965.845,-84358.935,11145.87,0.0,0.0,0.0,0.0,5
-76258.305,-26968.815,-84377.115,11165.625,0.0,0.0,0.0,0.0,5
-76248.72,-26968.365,-84403.485,11167.425,0.0,0.0,0.0,0.0,5
-76223.34,-26967.105,-84338.685,11190.69,0.0,0.0,0.0,0.0,5
-76179.105,-26964.18,-84245.805,11214.135,0.0,0.0,0.0,0.0,5
-76206.42,-26967.24,-84294.765,11205.855,0.0,0.0,0.0,0.0,5
-76218.345,-26965.665,-84320.28,11199.87,0.0,0.0,0.0,0.0,5
-76244.085,-26966.97,-84337.155,11189.205,0.0,0.0,0.0,0.0,5
-76236.165,-26965.935,-84320.82,11181.69,0.0,0.0,0.0,0.0,5
-76204.485,-26965.98,-84303.45,11200.725,0.0,0.0,0.0,0.0,5
-76213.665,-26964.45,-84329.145,11184.57,0.0,0.0,0.0,0.0,5
-76218.705,-26962.965,-84354.57,11161.71,0.0,0.0,0.0,0.0,5
-76227.255,-26961.795,-84379.68,11163.825,0.0,0.0,0.0,0.0,5
-76233.69,-26962.92,-84401.37,11164.905,0.0,0.0,0.0,0.0,5
-76240.62,-26961.525,-84359.43,11167.875,0.0,0.0,0.0,0.0,5
-76226.58,-26960.94,-84264.21,11205.09,0.0,0.0,0.0,0.0,5
-76204.26,-26960.31,-84257.73,11195.91,0.0,0.0,0.0,0.0,5
-76228.065,-26961.795,-84294.855,11173.41,0.0,0.0,0.0,0.0,5
-76259.295,-26965.125,-84347.73,11155.5,0.0,0.0,0.0,0.0,5
-76226.895,-26967.06,-84375.675,11130.03,0.0,0.0,0.0,0.0,5
-76205.295,-26965.44,-84335.535,11143.215,0.0,0.0,0.0,0.0,5
-76211.64,-26967.015,-84362.535,11139.615,0.0,0.0,0.0,0.0,5
-76265.055,-26970.615,-84461.67,11132.235,0.0,0.0,0.0,0.0,5
-76275.9,-26972.46,-84526.515,11121.93,0.0,0.0,0.0,0.0,5
-76228.38,-26966.745,-84459.105,11138.22,0.0,0.0,0.0,0.0,5
-76190.715,-26955.225,-84344.4,11186.595,0.0,0.0,0.0,0.0,5
-76213.665,-26947.26,-84227.715,11225.925,0.0,0.0,0.0,0.0,5
-76196.835,-26942.355,-84131.91,11267.64,0.0,0.0,0.0,0.0,5
-76224.645,-26946.09,-84228.66,11250.81,0.0,0.0,0.0,0.0,5
-76223.205,-26950.05,-84277.62,11218.23,0.0,0.0,0.0,0.0,5
-76213.89,-26950.455,-84282.165,11209.095,0.0,0.0,0.0,0.0,5
-76212.0,-26951.58,-84290.535,11207.745,0.0,0.0,0.0,0.0,5
-76210.92,-26951.94,-84306.015,11200.545,0.0,0.0,0.0,0.0,5
-76221.0,-26953.02,-84316.545,11200.41,0.0,0.0,0.0,0.0,5
-76228.065,-26954.505,-84358.17,11180.52,0.0,0.0,0.0,0.0,5
-76246.515,-26959.005,-84411.405,11169.9,0.0,0.0,0.0,0.0,5
-76260.69,-26961.57,-84402.0,11173.68,0.0,0.0,0.0,0.0,5
-76215.78,-26959.275,-84291.705,11199.06,0.0,0.0,0.0,0.0,5
-76193.37,-26956.665,-84228.93,11225.205,0.0,0.0,0.0,0.0,5
-76203.36,-26960.625,-84266.82,11223.855,0.0,0.0,0.0,0.0,5
-76198.77,-26960.31,-84275.235,11222.82,0.0,0.0,0.0,0.0,5
-76203.54,-26961.75,-84306.555,11198.745,0.0,0.0,0.0,0.0,5
-76214.52,-26962.47,-84318.12,11195.325,0.0,0.0,0.0,0.0,5
-76216.905,-26961.66,-84303.225,11215.845,0.0,0.0,0.0,0.0,5
-76198.005,-26961.165,-84300.12,11214.72,0.0,0.0,0.0,0.0,5
-76211.1,-26969.49,-84315.87,11194.065,0.0,0.0,0.0,0.0,5
-76215.375,-26967.42,-84323.565,11193.66,0.0,0.0,0.0,0.0,5
-76221.765,-26965.215,-84328.425,11190.555,0.0,0.0,0.0,0.0,5
-76222.17,-26964.675,-84326.31,11192.985,0.0,0.0,0.0,0.0,5
-76217.895,-26964.495,-84324.105,11192.04,0.0,0.0,0.0,0.0,5
-76220.1,-26964.0,-84321.72,11195.325,0.0,0.0,0.0,0.0,5
-76224.24,-26965.71,-84319.965,11199.555,0.0,0.0,0.0,0.0,5
-76225.77,-26965.755,-84320.28,11198.385,0.0,0.0,0.0,0.0,5
-76218.48,-26965.53,-84319.38,11192.985,0.0,0.0,0.0,0.0,5
-76213.08,-26961.93,-84309.66,11197.665,0.0,0.0,0.0,0.0,5
-76211.505,-26960.805,-84308.805,11196.855,0.0,0.0,0.0,0.0,5
-76216.23,-26959.32,-84321.0,11186.01,0.0,0.0,0.0,0.0,5
-76224.42,-26961.39,-84315.375,11204.46,0.0,0.0,0.0,0.0,5
-76231.395,-26963.685,-84323.565,11195.145,0.0,0.0,0.0,0.0,5
-76235.715,-26966.565,-84335.085,11183.085,0.0,0.0,0.0,0.0,5
-76234.32,-26967.015,-84344.805,11175.93,0.0,0.0,0.0,0.0,5
-76224.87,-26968.05,-84331.08,11184.93,0.0,0.0,0.0,0.0,5
-76227.165,-26970.885,-84331.98,11184.255,0.0,0.0,0.0,0.0,5
-76230.495,-26973.765,-84347.775,11162.43,0.0,0.0,0.0,0.0,5
-76229.505,-26972.235,-84351.825,11153.205,0.0,0.0,0.0,0.0,5
-76231.395,-26973.315,-84335.4,11171.16,0.0,0.0,0.0,0.0,5
-76239.09,-26971.47,-84340.53,11166.12,0.0,0.0,0.0,0.0,5
-76229.505,-26971.02,-84366.945,11129.625,0.0,0.0,0.0,0.0,5
-76222.8,-26969.94,-84367.215,11128.77,0.0,0.0,0.0,0.0,5
-76228.065,-26970.93,-84349.62,11162.385,0.0,0.0,0.0,0.0,5
-76232.745,-26970.345,-84350.745,11165.985,0.0,0.0,0.0,0.0,5
-76231.215,-26969.175,-84355.785,11160.36,0.0,0.0,0.0,0.0,5
-76230.315,-26967.465,-84358.62,11158.335,0.0,0.0,0.0,0.0,5
-76232.565,-26968.005,-84347.415,11171.295,0.0,0.0,0.0,0.0,5
-76236.345,-26969.625,-84331.125,11193.12,0.0,0.0,0.0,0.0,5
-76229.46,-26977.455,-84322.98,11198.43,0.0,0.0,0.0,0.0,5
-76230.225,-26979.48,-84313.665,11206.35,0.0,0.0,0.0,0.0,5
-76234.815,-26981.325,-84301.92,11224.215,0.0,0.0,0.0,0.0,5
-76230.45,-26981.865,-84311.64,11212.425,0.0,0.0,0.0,0.0,5
-76235.715,-26981.55,-84320.64,11203.56,0.0,0.0,0.0,0.0,5
-76233.87,-26979.345,-84326.715,11189.115,0.0,0.0,0.0,0.0,5
-76231.35,-26979.39,-84325.005,11186.955,0.0,0.0,0.0,0.0,5
-76232.565,-26981.1,-84321.585,11194.875,0.0,0.0,0.0,0.0,5
-76233.015,-26984.385,-84323.52,11191.005,0.0,0.0,0.0,0.0,5
-76232.07,-26985.195,-84322.755,11191.05,0.0,0.0,0.0,0.0,5
-76232.07,-26987.355,-84323.34,11190.555,0.0,0.0,0.0,0.0,5
-76233.69,-26988.615,-84324.015,11189.88,0.0,0.0,0.0,0.0,5
-76231.98,-26992.305,-84322.08,11191.545,0.0,0.0,0.0,0.0,5
-76233.105,-27000.63,-84324.645,11188.62,0.0,0.0,0.0,0.0,5
-76232.34,-27006.66,-84324.015,11190.42,0.0,0.0,0.0,0.0,5
-76233.015,-27010.305,-84320.37,11194.02,0.0,0.0,0.0,0.0,5
-76233.78,-27011.655,-84320.955,11192.535,0.0,0.0,0.0,0.0,5
-76235.4,-27010.98,-84322.665,11191.14,0.0,0.0,0.0,0.0,5
-76234.905,-27011.25,-84320.73,11192.4,0.0,0.0,0.0,0.0,5
-76231.53,-27010.8,-84301.92,11215.89,0.0,0.0,0.0,0.0,5
-76229.865,-27019.305,-84316.005,11194.83,0.0,0.0,0.0,0.0,5
-76236.57,-27019.98,-84330.495,11175.66,0.0,0.0,0.0,0.0,5
-76238.28,-27019.17,-84335.265,11170.305,0.0,0.0,0.0,0.0,5
-76237.335,-27017.685,-84328.65,11179.125,0.0,0.0,0.0,0.0,5
-76236.93,-27019.53,-84334.41,11174.175,0.0,0.0,0.0,0.0,5
-76232.565,-27021.42,-84324.69,11183.67,0.0,0.0,0.0,0.0,5
-76230.045,-27023.445,-84320.415,11188.53,0.0,0.0,0.0,0.0,5
-76239.72,-27022.05,-84342.285,11165.76,0.0,0.0,0.0,0.0,5
-76238.55,-27022.14,-84336.345,11167.38,0.0,0.0,0.0,0.0,5
-76232.655,-27022.455,-84314.385,11196.0,0.0,0.0,0.0,0.0,5
-76242.78,-27027.27,-84310.875,11218.32,0.0,0.0,0.0,0.0,5
-76243.455,-27029.88,-84374.82,11126.655,0.0,0.0,0.0,0.0,5
-76243.725,-27028.98,-84359.07,11141.91,0.0,0.0,0.0,0.0,5
-76237.515,-27027.9,-84339.945,11157.21,0.0,0.0,0.0,0.0,5
-76232.115,-27029.07,-84328.335,11168.37,0.0,0.0,0.0,0.0,5
-76231.53,-27029.16,-84322.08,11183.76,0.0,0.0,0.0,0.0,5
-76234.545,-27028.53,-84313.395,11199.285,0.0,0.0,0.0,0.0,5
-76239.18,-27027.9,-84323.34,11186.685,0.0,0.0,0.0,0.0,5
-76234.815,-27027.405,-84318.795,11179.755,0.0,0.0,0.0,0.0,5
-76234.005,-27025.875,-84311.73,11188.035,0.0,0.0,0.0,0.0,5
-76236.48,-27029.7,-84318.93,11185.02,0.0,0.0,0.0,0.0,5
-76241.385,-27031.32,-84325.995,11184.66,0.0,0.0,0.0,0.0,5
-76241.61,-27031.275,-84331.89,11181.735,0.0,0.0,0.0,0.0,5
-76239.45,-27030.78,-84325.185,11184.435,0.0,0.0,0.0,0.0,5
-76233.87,-27032.67,-84309.93,11198.925,0.0,0.0,0.0,0.0,5
-76232.34,-27035.415,-84316.545,11192.355,0.0,0.0,0.0,0.0,5
-76228.83,-27037.35,-84300.795,11207.385,0.0,0.0,0.0,0.0,5
-76232.115,-27038.16,-84304.305,11203.065,0.0,0.0,0.0,0.0,5
-76235.085,-27040.59,-84309.165,11197.08,0.0,0.0,0.0,0.0,5
-76234.815,-27040.635,-84307.545,11197.395,0.0,0.0,0.0,0.0,5
-76234.32,-27042.705,-84307.23,11198.295,0.0,0.0,0.0,0.0,5
-76233.825,-27040.77,-84307.545,11199.42,0.0,0.0,0.0,0.0,5
-76232.295,-27041.04,-84304.755,11202.48,0.0,0.0,0.0,0.0,5
-76234.05,-27041.22,-84306.825,11203.92,0.0,0.0,0.0,0.0,5
-76243.77,-27040.995,-84320.325,11202.075,0.0,0.0,0.0,0.0,5
-76263.975,-27043.425,-84343.59,11193.345,0.0,0.0,0.0,0.0,5
-76274.955,-27046.035,-84352.86,11179.935,0.0,0.0,0.0,0.0,5
-76247.91,-27043.605,-84323.7,11184.705,0.0,0.0,0.0,0.0,5
-76223.655,-27043.605,-84288.105,11202.075,0.0,0.0,0.0,0.0,5
-76214.07,-27043.56,-84286.845,11204.01,0.0,0.0,0.0,0.0,5
-76222.395,-27040.86,-84296.25,11199.96,0.0,0.0,0.0,0.0,5
-76228.56,-27038.79,-84295.845,11205.225,0.0,0.0,0.0,0.0,5
-76223.115,-27039.915,-84284.82,11220.255,0.0,0.0,0.0,0.0,5
-76221.855,-27041.04,-84275.82,11241.36,0.0,0.0,0.0,0.0,5
-76220.64,-27044.82,-84299.985,11202.435,0.0,0.0,0.0,0.0,5
-76240.44,-27048.645,-84353.58,11142.855,0.0,0.0,0.0,0.0,5
-76249.44,-27050.04,-84353.22,11151.72,0.0,0.0,0.0,0.0,5
-76251.33,-27050.13,-84342.915,11164.32,0.0,0.0,0.0,0.0,5
-76246.065,-27051.255,-84333.33,11168.955,0.0,0.0,0.0,0.0,5
-76248.99,-27050.58,-84339.585,11175.21,0.0,0.0,0.0,0.0,5
-76278.42,-27054.99,-84360.735,11182.005,0.0,0.0,0.0,0.0,5
-76288.725,-27055.125,-84342.195,11202.255,0.0,0.0,0.0,0.0,5
-76234.23,-27051.525,-84275.325,11225.07,0.0,0.0,0.0,0.0,5
-76194.99,-27049.32,-84249.99,11222.685,0.0,0.0,0.0,0.0,5
-76206.87,-27050.535,-84256.29,11227.185,0.0,0.0,0.0,0.0,5
-76215.96,-27050.94,-84272.535,11218.32,0.0,0.0,0.0,0.0,5
-76225.095,-27051.525,-84286.8,11208.825,0.0,0.0,0.0,0.0,5
-76225.725,-27050.445,-84285.54,11213.145,0.0,0.0,0.0,0.0,5
-76227.525,-27052.83,-84286.62,11212.155,0.0,0.0,0.0,0.0,5
-76232.97,-27052.29,-84294.675,11204.46,0.0,0.0,0.0,0.0,5
-76235.805,-27053.145,-84296.88,11204.865,0.0,0.0,0.0,0.0,5
-76238.19,-27051.39,-84295.35,11213.91,0.0,0.0,0.0,0.0,5
-76233.015,-27051.93,-84312.54,11189.61,0.0,0.0,0.0,0.0,5
-76233.42,-27052.245,-84314.385,11182.95,0.0,0.0,0.0,0.0,5
-76237.29,-27054.225,-84313.305,11185.83,0.0,0.0,0.0,0.0,5
-76241.52,-27056.79,-84316.185,11190.105,0.0,0.0,0.0,0.0,5
-76259.745,-27059.355,-84340.89,11189.7,0.0,0.0,0.0,0.0,5
-76350.465,-27064.17,-84451.815,11154.645,0.0,0.0,0.0,0.0,5
-76435.155,-27071.46,-84542.49,11100.645,0.0,0.0,0.0,0.0,5
-76393.665,-27072.09,-84460.005,11112.885,0.0,0.0,0.0,0.0,5
-76172.76,-27057.465,-84211.875,11193.03,0.0,0.0,0.0,0.0,5
-76111.02,-27051.165,-84201.165,11209.41,0.0,0.0,0.0,0.0,5
-76160.565,-27053.415,-84245.445,11217.735,0.0,0.0,0.0,0.0,5
-76181.985,-27052.83,-84254.625,11223.36,0.0,0.0,0.0,0.0,5
-76206.645,-27056.205,-84318.705,11155.86,0.0,0.0,0.0,0.0,5
-76255.65,-27062.505,-84419.55,11072.07,0.0,0.0,0.0,0.0,5
-76325.805,-27068.445,-84522.69,11012.985,0.0,0.0,0.0,0.0,5
-76365.63,-27068.715,-84526.515,11031.3,0.0,0.0,0.0,0.0,5
-76291.875,-27062.55,-84376.755,11134.935,0.0,0.0,0.0,0.0,5
-76214.745,-27055.08,-84220.695,11264.985,0.0,0.0,0.0,0.0,5
-76155.435,-27050.445,-84110.49,11354.535,0.0,0.0,0.0,0.0,5
-76174.83,-27050.58,-84179.205,11312.595,0.0,0.0,0.0,0.0,5
-76207.365,-27050.715,-84243.51,11266.335,0.0,0.0,0.0,0.0,5
-76221.63,-27050.535,-84259.53,11248.425,0.0,0.0,0.0,0.0,5
-76230.765,-27053.37,-84269.025,11242.935,0.0,0.0,0.0,0.0,5
-76241.835,-27058.095,-84271.77,11251.935,0.0,0.0,0.0,0.0,5
-76273.965,-27065.295,-84326.67,11214.09,0.0,0.0,0.0,0.0,5
-76335.795,-27073.89,-84417.12,11160.135,0.0,0.0,0.0,0.0,5
-76355.28,-27078.12,-84408.84,11174.265,0.0,0.0,0.0,0.0,5
-76256.1,-27072.765,-84291.93,11204.91,0.0,0.0,0.0,0.0,5
-76150.485,-27068.31,-84210.165,11235.51,0.0,0.0,0.0,0.0,5
-76180.59,-27067.725,-84252.24,11230.83,0.0,0.0,0.0,0.0,5
-76209.165,-27068.445,-84282.615,11208.105,0.0,0.0,0.0,0.0,5
-76220.955,-27066.555,-84287.79,11207.88,0.0,0.0,0.0,0.0,5
-76228.29,-27065.565,-84295.8,11204.685,0.0,0.0,0.0,0.0,5
-76236.75,-27068.76,-84306.645,11197.17,0.0,0.0,0.0,0.0,5
-76241.16,-27073.53,-84312.495,11193.975,0.0,0.0,0.0,0.0,5
-76242.645,-27075.33,-84309.57,11197.71,0.0,0.0,0.0,0.0,5
-76243.545,-27075.465,-84310.965,11198.385,0.0,0.0,0.0,0.0,5
-76242.33,-27074.565,-84324.06,11185.65,0.0,0.0,0.0,0.0,5
-76241.07,-27077.535,-84343.365,11164.95,0.0,0.0,0.0,0.0,5
-76244.13,-27076.365,-84361.77,11144.7,0.0,0.0,0.0,0.0,5
-76246.92,-27075.87,-84368.43,11134.485,0.0,0.0,0.0,0.0,5
-76251.465,-27074.475,-84351.78,11153.745,0.0,0.0,0.0,0.0,5
-76251.555,-27075.645,-84315.195,11192.175,0.0,0.0,0.0,0.0,5
-76251.555,-27076.185,-84275.73,11241.18,0.0,0.0,0.0,0.0,5
-76249.53,-27077.715,-84300.93,11216.205,0.0,0.0,0.0,0.0,5
-76250.61,-27076.5,-84331.305,11178.945,0.0,0.0,0.0,0.0,5
-76251.465,-27077.22,-84340.935,11161.89,0.0,0.0,0.0,0.0,5
-76257.0,-27076.14,-84347.91,11158.11,0.0,0.0,0.0,0.0,5
-76275.855,-27075.105,-84357.63,11162.61,0.0,0.0,0.0,0.0,5
-76321.575,-27073.845,-84363.975,11188.89,0.0,0.0,0.0,0.0,5
-76334.31,-27072.99,-84335.58,11221.47,0.0,0.0,0.0,0.0,5
-76268.97,-27069.57,-84298.725,11209.455,0.0,0.0,0.0,0.0,5
-76188.465,-27067.23,-84248.37,11218.23,0.0,0.0,0.0,0.0,5
-76213.935,-27072.855,-84282.57,11208.06,0.0,0.0,0.0,0.0,5
-76241.565,-27076.5,-84307.725,11198.34,0.0,0.0,0.0,0.0,5
-76252.86,-27075.69,-84321.9,11190.51,0.0,0.0,0.0,0.0,5
-76265.415,-27074.34,-84328.965,11193.57,0.0,0.0,0.0,0.0,5
-76285.035,-27072.27,-84350.115,11188.575,0.0,0.0,0.0,0.0,5
-76277.7,-27067.59,-84348.72,11178.945,0.0,0.0,0.0,0.0,5
-76236.795,-27063.315,-84310.965,11187.81,0.0,0.0,0.0,0.0,5
-76218.66,-27064.71,-84283.605,11202.885,0.0,0.0,0.0,0.0,5
-76239.315,-27064.845,-84290.895,11211.3,0.0,0.0,0.0,0.0,5
-76244.535,-27067.14,-84295.08,11209.455,0.0,0.0,0.0,0.0,5
-76245.705,-27071.955,-84305.88,11200.41,0.0,0.0,0.0,0.0,5
-76251.915,-27074.16,-84310.11,11198.16,0.0,0.0,0.0,0.0,5
-76254.93,-27073.26,-84313.98,11196.135,0.0,0.0,0.0,0.0,5
-76269.33,-27076.23,-84324.915,11194.245,0.0,0.0,0.0,0.0,5
-76282.29,-27077.13,-84328.695,11197.08,0.0,0.0,0.0,0.0,5
-76258.485,-27076.905,-84301.515,11210.31,0.0,0.0,0.0,0.0,5
-76227.705,-27073.53,-84273.615,11231.91,0.0,0.0,0.0,0.0,5
-76237.425,-27073.35,-84301.695,11208.24,0.0,0.0,0.0,0.0,5
-76260.42,-27074.7,-84335.94,11179.08,0.0,0.0,0.0,0.0,5
-76283.775,-27079.29,-84367.305,11166.12,0.0,0.0,0.0,0.0,5
-76313.295,-27084.825,-84382.155,11169.54,0.0,0.0,0.0,0.0,5
-76291.065,-27086.4,-84339.135,11189.655,0.0,0.0,0.0,0.0,5
-76223.565,-27082.215,-84282.12,11201.13,0.0,0.0,0.0,0.0,5
-76204.98,-27080.55,-84262.995,11214.36,0.0,0.0,0.0,0.0,5
-76223.52,-27080.73,-84280.455,11210.67,0.0,0.0,0.0,0.0,5
-76232.16,-27080.01,-84287.655,11209.5,0.0,0.0,0.0,0.0,5
-76237.83,-27078.48,-84291.48,11209.995,0.0,0.0,0.0,0.0,5
-76240.665,-27080.28,-84292.425,11211.435,0.0,0.0,0.0,0.0,5
-76244.94,-27081.09,-84296.25,11207.835,0.0,0.0,0.0,0.0,5
-76247.955,-27082.035,-84298.05,11207.295,0.0,0.0,0.0,0.0,5
-76249.17,-27081.99,-84299.94,11203.92,0.0,0.0,0.0,0.0,5
-76250.43,-27081.63,-84296.385,11209.32,0.0,0.0,0.0,0.0,5
-76254.615,-27082.44,-84291.795,11218.95,0.0,0.0,0.0,0.0,5
-76248.315,-27084.42,-84296.88,11209.275,0.0,0.0,0.0,0.0,5
-76244.49,-27083.475,-84293.415,11211.03,0.0,0.0,0.0,0.0,5
-76251.69,-27093.6,-84303.18,11202.21,0.0,0.0,0.0,0.0,5
-76256.37,-27096.39,-84309.705,11195.865,0.0,0.0,0.0,0.0,5
-76252.815,-27095.535,-84305.88,11200.185,0.0,0.0,0.0,0.0,5
-76254.21,-27095.895,-84301.83,11200.545,0.0,0.0,0.0,0.0,5
-76254.84,-27099.495,-84319.155,11181.645,0.0,0.0,0.0,0.0,5
-76254.84,-27100.62,-84319.515,11180.565,0.0,0.0,0.0,0.0,5
-76255.695,-27102.105,-84309.84,11192.4,0.0,0.0,0.0,0.0,5
-76252.32,-27099.675,-84300.885,11201.625,0.0,0.0,0.0,0.0,5
-76253.04,-27099.27,-84297.51,11205.405,0.0,0.0,0.0,0.0,5
-76250.52,-27099.765,-84308.31,11186.685,0.0,0.0,0.0,0.0,5
-76249.665,-27102.78,-84302.595,11191.32,0.0,0.0,0.0,0.0,5
-76249.935,-27100.845,-84287.115,11215.305,0.0,0.0,0.0,0.0,5
-76251.87,-27097.38,-84275.415,11241.63,0.0,0.0,0.0,0.0,5
-76252.455,-27097.11,-84281.04,11237.4,0.0,0.0,0.0,0.0,5
-76251.78,-27100.665,-84293.19,11217.195,0.0,0.0,0.0,0.0,5
-76249.53,-27103.14,-84290.04,11219.58,0.0,0.0,0.0,0.0,5
-76249.89,-27103.725,-84290.94,11216.97,0.0,0.0,0.0,0.0,5
-76251.42,-27102.87,-84295.08,11209.86,0.0,0.0,0.0,0.0,5
-76248.36,-27102.465,-84281.715,11223.45,0.0,0.0,0.0,0.0,5
-76249.08,-27101.34,-84279.645,11225.52,0.0,0.0,0.0,0.0,5
-76251.915,-27097.74,-84296.565,11204.235,0.0,0.0,0.0,0.0,5
-76252.05,-27091.62,-84293.505,11208.42,0.0,0.0,0.0,0.0,5
-76251.015,-27091.845,-84290.355,11212.47,0.0,0.0,0.0,0.0,5
-76253.49,-27093.465,-84291.84,11212.11,0.0,0.0,0.0,0.0,5
-76255.245,-27094.815,-84293.955,11209.905,0.0,0.0,0.0,0.0,5
-76254.57,-27096.705,-84293.235,11210.535,0.0,0.0,0.0,0.0,5
-76252.725,-27099.495,-84290.355,11214.855,0.0,0.0,0.0,0.0,5
-76246.56,-27098.37,-84276.36,11225.43,0.0,0.0,0.0,0.0,5
-76243.5,-27098.865,-84276.54,11224.935,0.0,0.0,0.0,0.0,5
-76243.59,-27097.155,-84279.33,11222.865,0.0,0.0,0.0,0.0,5
-76249.89,-27089.415,-84291.165,11209.095,0.0,0.0,0.0,0.0,5
-76249.215,-27084.015,-84284.46,11216.925,0.0,0.0,0.0,0.0,5
-76245.705,-27083.295,-84279.87,11221.83,0.0,0.0,0.0,0.0,5
-76250.655,-27081.72,-84283.92,11221.11,0.0,0.0,0.0,0.0,5
-76249.845,-27082.44,-84294.81,11203.605,0.0,0.0,0.0,0.0,5
-76247.64,-27081.315,-84285.72,11211.84,0.0,0.0,0.0,0.0,5
-76248.63,-27081.09,-84284.055,11214.18,0.0,0.0,0.0,0.0,5
-76247.82,-27079.245,-84284.145,11214.45,0.0,0.0,0.0,0.0,5
-76248.495,-27081.18,-84288.375,11209.23,0.0,0.0,0.0,0.0,5
-76248.405,-27079.605,-84285.63,11210.895,0.0,0.0,0.0,0.0,5
-76250.655,-27070.965,-84285.495,11212.11,0.0,0.0,0.0,0.0,5
-76253.22,-27064.395,-84286.395,11210.985,0.0,0.0,0.0,0.0,5
-76254.705,-27064.26,-84283.155,11216.07,0.0,0.0,0.0,0.0,5
-76253.13,-27061.56,-84284.82,11211.93,0.0,0.0,0.0,0.0,5
-76251.42,-27058.5,-84282.525,11207.61,0.0,0.0,0.0,0.0,5
-76255.155,-27055.62,-84279.555,11214.18,0.0,0.0,0.0,0.0,5
-76253.58,-27056.34,-84269.07,11230.335,0.0,0.0,0.0,0.0,5
-76251.915,-27057.465,-84293.91,11195.505,0.0,0.0,0.0,0.0,5
-76253.94,-27058.05,-84290.04,11199.33,0.0,0.0,0.0,0.0,5
-76255.65,-27055.665,-84287.25,11203.38,0.0,0.0,0.0,0.0,5
-76252.725,-27051.93,-84284.19,11205.585,0.0,0.0,0.0,0.0,5
-76251.69,-27048.915,-84281.49,11209.275,0.0,0.0,0.0,0.0,5
-76250.43,-27050.805,-84280.14,11211.12,0.0,0.0,0.0,0.0,5
-76252.68,-27049.59,-84280.275,11210.85,0.0,0.0,0.0,0.0,5
-76252.905,-27048.69,-84277.89,11214.855,0.0,0.0,0.0,0.0,5
-76250.835,-27048.42,-84274.335,11219.22,0.0,0.0,0.0,0.0,5
-76251.33,-27049.32,-84280.77,11211.39,0.0,0.0,0.0,0.0,5
-76249.62,-27047.7,-84271.32,11222.325,0.0,0.0,0.0,0.0,5
-76249.53,-27048.645,-84266.505,11227.005,0.0,0.0,0.0,0.0,5
-76251.465,-27048.33,-84269.7,11225.295,0.0,0.0,0.0,0.0,5
-76255.65,-27041.04,-84277.395,11217.69,0.0,0.0,0.0,0.0,5
-76251.645,-27033.795,-84278.385,11212.29,0.0,0.0,0.0,0.0,5
-76253.94,-27032.985,-84272.94,11220.66,0.0,0.0,0.0,0.0,5
-76253.58,-27033.12,-84278.43,11211.93,0.0,0.0,0.0,0.0,5
-76248.99,-27034.2,-84276.27,11213.01,0.0,0.0,0.0,0.0,5
-76250.205,-27034.245,-84268.89,11222.82,0.0,0.0,0.0,0.0,5
-76251.06,-27037.035,-84278.07,11211.615,0.0,0.0,0.0,0.0,5
-76250.745,-27037.305,-84271.32,11217.96,0.0,0.0,0.0,0.0,5
-76249.26,-27040.59,-84269.835,11220.21,0.0,0.0,0.0,0.0,5
-76250.43,-27038.52,-84269.295,11221.92,0.0,0.0,0.0,0.0,5
-76249.62,-27032.31,-84267.99,11223.54,0.0,0.0,0.0,0.0,5
-76247.91,-27030.105,-84265.74,11225.745,0.0,0.0,0.0,0.0,5
-76244.04,-27032.22,-84260.07,11232.72,0.0,0.0,0.0,0.0,5
-76243.365,-27032.49,-84257.64,11234.655,0.0,0.0,0.0,0.0,5
-76248.45,-27034.695,-84266.145,11224.575,0.0,0.0,0.0,0.0,5
-76251.015,-27032.445,-84267.315,11225.43,0.0,0.0,0.0,0.0,5
-76251.105,-27031.59,-84266.19,11228.085,0.0,0.0,0.0,0.0,5
-76247.595,-27031.77,-84268.035,11220.435,0.0,0.0,0.0,0.0,5
-76246.83,-27034.83,-84266.775,11221.02,0.0,0.0,0.0,0.0,5
-76249.665,-27033.66,-84262.995,11227.32,0.0,0.0,0.0,0.0,5
-76253.94,-27030.42,-84268.125,11223.045,0.0,0.0,0.0,0.0,5
-76251.015,-27025.92,-84267.18,11223.405,0.0,0.0,0.0,0.0,5
-76248.99,-27025.695,-84268.26,11220.66,0.0,0.0,0.0,0.0,5
-76248.09,-27027.945,-84261.51,11229.705,0.0,0.0,0.0,0.0,5
-76244.085,-27029.475,-84251.655,11241.81,0.0,0.0,0.0,0.0,5
-76248.675,-27028.575,-84259.44,11236.455,0.0,0.0,0.0,0.0,5
-76251.87,-27030.375,-84273.705,11215.26,0.0,0.0,0.0,0.0,5
-76249.53,-27029.79,-84262.77,11225.385,0.0,0.0,0.0,0.0,5
-76250.88,-27030.015,-84264.795,11226.06,0.0,0.0,0.0,0.0,5
-76248.765,-27030.375,-84261.105,11229.885,0.0,0.0,0.0,0.0,5
-76245.165,-27025.245,-84258.225,11233.665,0.0,0.0,0.0,0.0,5
-76246.965,-27020.115,-84258.765,11233.485,0.0,0.0,0.0,0.0,5
-76248.9,-27019.755,-84262.995,11226.915,0.0,0.0,0.0,0.0,5
-76244.265,-27020.115,-84253.05,11233.26,0.0,0.0,0.0,0.0,5
-76242.87,-27022.545,-84265.425,11219.355,0.0,0.0,0.0,0.0,5
-76247.82,-27021.285,-84265.83,11220.075,0.0,0.0,0.0,0.0,5
-76247.64,-27021.15,-84263.67,11220.75,0.0,0.0,0.0,0.0,5
-76244.4,-27022.815,-84256.785,11226.735,0.0,0.0,0.0,0.0,5
-76242.105,-27024.345,-84253.185,11234.025,0.0,0.0,0.0,0.0,5
-76240.665,-27024.255,-84257.37,11228.985,0.0,0.0,0.0,0.0,5
-76242.87,-27015.075,-84259.98,11227.59,0.0,0.0,0.0,0.0,5
-76242.195,-27007.2,-84252.195,11235.465,0.0,0.0,0.0,0.0,5
-76239.855,-27007.38,-84245.715,11244.33,0.0,0.0,0.0,0.0,5
-76242.375,-27005.985,-84255.03,11233.665,0.0,0.0,0.0,0.0,5
-76248.045,-27006.93,-84261.735,11226.24,0.0,0.0,0.0,0.0,5
-76247.505,-27007.425,-84257.01,11232.09,0.0,0.0,0.0,0.0,5
-76246.38,-27009.18,-84257.37,11231.145,0.0,0.0,0.0,0.0,5
-76246.425,-27008.595,-84256.695,11232.0,0.0,0.0,0.0,0.0,5
-76246.965,-27008.595,-84257.055,11230.29,0.0,0.0,0.0,0.0,5
-76244.49,-27006.705,-84247.2,11241.63,0.0,0.0,0.0,0.0,5
-76243.635,-26998.335,-84247.695,11241.675,0.0,0.0,0.0,0.0,5
-76247.28,-26991.36,-84257.28,11232.36,0.0,0.0,0.0,0.0,5
-76241.07,-26991.18,-84244.545,11244.87,0.0,0.0,0.0,0.0,5
-76243.455,-26991.09,-84240.585,11252.97,0.0,0.0,0.0,0.0,5
-76248.675,-26992.305,-84261.285,11227.095,0.0,0.0,0.0,0.0,5
-76248.315,-26993.97,-84268.44,11214.765,0.0,0.0,0.0,0.0,5
-76245.93,-26995.5,-84255.165,11231.73,0.0,0.0,0.0,0.0,5
-76246.38,-26993.835,-84254.265,11233.62,0.0,0.0,0.0,0.0,5
-76246.605,-26992.845,-84253.545,11235.42,0.0,0.0,0.0,0.0,5
-76247.37,-26991.045,-84261.24,11226.87,0.0,0.0,0.0,0.0,5
-76253.58,-26981.82,-84252.735,11241.45,0.0,0.0,0.0,0.0,5
-76250.43,-26973.09,-84268.935,11214.225,0.0,0.0,0.0,0.0,5
-76248.54,-26971.335,-84264.255,11221.47,0.0,0.0,0.0,0.0,5
-76248.315,-26969.58,-84256.47,11232.27,0.0,0.0,0.0,0.0,5
-76251.33,-26970.12,-84263.535,11224.08,0.0,0.0,0.0,0.0,5
-76251.69,-26968.95,-84264.165,11224.485,0.0,0.0,0.0,0.0,5
-76252.635,-26969.13,-84264.84,11225.745,0.0,0.0,0.0,0.0,5
-76253.13,-26970.39,-84264.03,11227.635,0.0,0.0,0.0,0.0,5
-76250.745,-26972.775,-84258.225,11233.08,0.0,0.0,0.0,0.0,5
-76252.86,-26971.83,-84250.575,11244.06,0.0,0.0,0.0,0.0,5
-76256.595,-26967.15,-84260.07,11234.475,0.0,0.0,0.0,0.0,5
-76258.665,-26964.945,-84264.66,11224.935,0.0,0.0,0.0,0.0,5
-76262.445,-26966.745,-84266.325,11222.82,0.0,0.0,0.0,0.0,5
-76263.66,-26966.745,-84268.35,11219.895,0.0,0.0,0.0,0.0,5
-76266.045,-26968.77,-84270.645,11216.88,0.0,0.0,0.0,0.0,5
-76261.455,-26969.49,-84260.925,11227.815,0.0,0.0,0.0,0.0,5
-76263.66,-26971.29,-84260.97,11232.81,0.0,0.0,0.0,0.0,5
-76258.755,-26968.95,-84266.055,11219.04,0.0,0.0,0.0,0.0,5
-76260.645,-26968.365,-84259.89,11227.32,0.0,0.0,0.0,0.0,5
-76258.17,-26969.22,-84259.44,11228.67,0.0,0.0,0.0,0.0,5
-76254.975,-26967.69,-84254.805,11234.16,0.0,0.0,0.0,0.0,5
-76254.48,-26964.09,-84253.77,11235.285,0.0,0.0,0.0,0.0,5
-76258.215,-26964.495,-84260.745,11227.59,0.0,0.0,0.0,0.0,5
-76262.13,-26964.99,-84268.62,11220.525,0.0,0.0,0.0,0.0,5
-76255.515,-26966.835,-84249.36,11240.595,0.0,0.0,0.0,0.0,5
-76257.54,-26963.865,-84248.01,11243.34,0.0,0.0,0.0,0.0,5
-76261.86,-26962.83,-84266.91,11220.345,0.0,0.0,0.0,0.0,5
-76265.19,-26962.965,-84265.38,11221.245,0.0,0.0,0.0,0.0,5
-76265.325,-26965.395,-84265.425,11225.7,0.0,0.0,0.0,0.0,5
-76262.13,-26964.18,-84260.34,11229.66,0.0,0.0,0.0,0.0,5
-76260.285,-26954.865,-84250.125,11238.3,0.0,0.0,0.0,0.0,5
-76261.14,-26948.565,-84259.89,11227.365,0.0,0.0,0.0,0.0,5
-76265.055,-26947.98,-84259.44,11227.95,0.0,0.0,0.0,0.0,5
-76265.37,-26947.755,-84261.195,11225.475,0.0,0.0,0.0,0.0,5
-76266.585,-26949.825,-84263.67,11222.1,0.0,0.0,0.0,0.0,5
-76268.43,-26952.39,-84261.78,11225.34,0.0,0.0,0.0,0.0,5
-76264.92,-26953.785,-84256.2,11231.73,0.0,0.0,0.0,0.0,5
-76265.91,-26952.93,-84253.635,11236.095,0.0,0.0,0.0,0.0,5
-76264.83,-26955.99,-84260.565,11224.98,0.0,0.0,0.0,0.0,5
-76263.66,-26955.9,-84256.83,11227.905,0.0,0.0,0.0,0.0,5
-76262.22,-26949.33,-84248.82,11239.245,0.0,0.0,0.0,0.0,5
-76264.2,-26944.74,-84251.07,11238.21,0.0,0.0,0.0,0.0,5
-76265.73,-26946.9,-84264.84,11220.3,0.0,0.0,0.0,0.0,5
-76260.915,-26945.865,-84253.635,11230.56,0.0,0.0,0.0,0.0,5
-76262.04,-26946.18,-84257.55,11225.88,0.0,0.0,0.0,0.0,5
-76262.13,-26944.695,-84265.56,11214.855,0.0,0.0,0.0,0.0,5
-76263.03,-26942.805,-84258.045,11225.745,0.0,0.0,0.0,0.0,5
-76260.105,-26941.5,-84263.715,11221.47,0.0,0.0,0.0,0.0,5
-76259.79,-26943.345,-84259.89,11225.385,0.0,0.0,0.0,0.0,5
-76259.34,-26946.27,-84256.65,11228.445,0.0,0.0,0.0,0.0,5
-76256.37,-26942.805,-84251.835,11232.675,0.0,0.0,0.0,0.0,5
-76255.74,-26938.8,-84250.125,11234.385,0.0,0.0,0.0,0.0,5
-76256.505,-26938.53,-84251.205,11233.44,0.0,0.0,0.0,0.0,5
-76257.27,-26937.45,-84253.14,11231.73,0.0,0.0,0.0,0.0,5
-76257.315,-26937.495,-84246.39,11238.705,0.0,0.0,0.0,0.0,5
-76252.68,-26938.35,-84234.555,11253.6,0.0,0.0,0.0,0.0,5
-76254.435,-26939.745,-84243.33,11247.57,0.0,0.0,0.0,0.0,5
-76259.565,-26938.215,-84252.15,11232.99,0.0,0.0,0.0,0.0,5
-76261.86,-26937.99,-84251.655,11229.93,0.0,0.0,0.0,0.0,5
-76262.445,-26938.305,-84256.065,11224.035,0.0,0.0,0.0,0.0,5
-76260.24,-26934.03,-84251.61,11230.425,0.0,0.0,0.0,0.0,5
-76262.265,-26929.98,-84253.59,11227.32,0.0,0.0,0.0,0.0,5
-76262.49,-26930.025,-84248.325,11233.71,0.0,0.0,0.0,0.0,5
-76264.155,-26929.08,-84246.795,11235.69,0.0,0.0,0.0,0.0,5
-76266.54,-26927.955,-84247.605,11235.735,0.0,0.0,0.0,0.0,5
-76263.795,-26925.795,-84249.945,11231.775,0.0,0.0,0.0,0.0,5
-76266.315,-26926.2,-84250.755,11233.485,0.0,0.0,0.0,0.0,5
-76260.78,-26926.065,-84253.14,11223.99,0.0,0.0,0.0,0.0,5
-76264.47,-26925.795,-84250.575,11229.21,0.0,0.0,0.0,0.0,5
-76263.795,-26924.085,-84255.03,11223.18,0.0,0.0,0.0,0.0,5
-76265.415,-26920.08,-84249.45,11231.1,0.0,0.0,0.0,0.0,5
-76266.27,-26918.055,-84253.905,11226.645,0.0,0.0,0.0,0.0,5
-76268.07,-26916.93,-84253.635,11227.41,0.0,0.0,0.0,0.0,5
-76267.08,-26914.365,-84247.785,11236.005,0.0,0.0,0.0,0.0,5
-76264.92,-26914.455,-84249.405,11230.2,0.0,0.0,0.0,0.0,5
-76263.885,-26915.04,-84250.08,11228.67,0.0,0.0,0.0,0.0,5
-76262.67,-26917.92,-84246.3,11229.435,0.0,0.0,0.0,0.0,5
-76266.27,-26917.245,-84240.225,11237.535,0.0,0.0,0.0,0.0,5
-76265.01,-26918.1,-84253.41,11223.585,0.0,0.0,0.0,0.0,5
-76266.045,-26918.505,-84251.52,11224.395,0.0,0.0,0.0,0.0,5
-76268.07,-26917.515,-84253.05,11223.09,0.0,0.0,0.0,0.0,5
-76267.08,-26913.42,-84248.865,11228.4,0.0,0.0,0.0,0.0,5
-76265.955,-26913.6,-84243.69,11234.97,0.0,0.0,0.0,0.0,5
-76266.045,-26912.295,-84244.365,11233.53,0.0,0.0,0.0,0.0,5
-76265.64,-26910.225,-84248.91,11228.13,0.0,0.0,0.0,0.0,5
-76267.485,-26909.37,-84248.82,11230.65,0.0,0.0,0.0,0.0,5
-76264.38,-26910.99,-84245.31,11234.07,0.0,0.0,0.0,0.0,5
-76260.105,-26908.92,-84238.785,11242.08,0.0,0.0,0.0,0.0,5
-76264.335,-26909.19,-84252.105,11227.995,0.0,0.0,0.0,0.0,5
-76264.92,-26906.76,-84237.075,11244.555,0.0,0.0,0.0,0.0,5
-76265.73,-26908.065,-84236.67,11246.895,0.0,0.0,0.0,0.0,5
-76264.425,-26907.39,-84241.845,11241.135,0.0,0.0,0.0,0.0,5
-76267.44,-26908.65,-84249.54,11233.8,0.0,0.0,0.0,0.0,5
-76272.525,-26909.595,-84254.49,11226.96,0.0,0.0,0.0,0.0,5
-76271.805,-26910.855,-84248.19,11234.655,0.0,0.0,0.0,0.0,5
-76270.05,-26909.595,-84248.055,11234.115,0.0,0.0,0.0,0.0,5
-76269.915,-26911.215,-84252.195,11228.67,0.0,0.0,0.0,0.0,5
-76271.985,-26912.07,-84246.03,11235.51,0.0,0.0,0.0,0.0,5
-76271.805,-26913.825,-84246.39,11236.23,0.0,0.0,0.0,0.0,5
-76269.105,-26912.43,-84241.53,11244.015,0.0,0.0,0.0,0.0,5
-76271.31,-26901.585,-84236.4,11254.185,0.0,0.0,0.0,0.0,5
-76264.065,-26893.98,-84244.68,11235.915,0.0,0.0,0.0,0.0,5
-76268.88,-26894.88,-84247.695,11235.015,0.0,0.0,0.0,0.0,5
-76271.76,-26897.04,-84253.635,11228.67,0.0,0.0,0.0,0.0,5
-76269.42,-26899.155,-84251.43,11230.965,0.0,0.0,0.0,0.0,5
-76265.865,-26899.965,-84243.87,11238.345,0.0,0.0,0.0,0.0,5
-76268.52,-26901.63,-84244.455,11240.37,0.0,0.0,0.0,0.0,5
-76270.095,-26902.53,-84249.045,11236.545,0.0,0.0,0.0,0.0,5
-76264.155,-26904.555,-84235.23,11247.615,0.0,0.0,0.0,0.0,5
-76267.62,-26905.095,-84231.81,11252.16,0.0,0.0,0.0,0.0,5
-76269.24,-26902.395,-84242.745,11240.1,0.0,0.0,0.0,0.0,5
-76268.025,-26900.595,-84251.925,11228.085,0.0,0.0,0.0,0.0,5
-76272.12,-26901.765,-84258.315,11224.17,0.0,0.0,0.0,0.0,5
-76271.625,-26901.675,-84257.775,11221.02,0.0,0.0,0.0,0.0,5
-76269.69,-26902.665,-84241.98,11237.805,0.0,0.0,0.0,0.0,5
-76269.555,-26901.045,-84242.295,11238.885,0.0,0.0,0.0,0.0,5
-76267.035,-26900.145,-84238.38,11242.71,0.0,0.0,0.0,0.0,5
-76270.005,-26899.47,-84227.265,11261.07,0.0,0.0,0.0,0.0,5
-76272.165,-26903.07,-84234.645,11250.81,0.0,0.0,0.0,0.0,5
-76274.595,-26904.6,-84248.37,11229.975,0.0,0.0,0.0,0.0,5
-76276.665,-26906.625,-84270.555,11206.395,0.0,0.0,0.0,0.0,5
-76277.7,-26903.52,-84259.44,11221.47,0.0,0.0,0.0,0.0,5
-76277.115,-26903.025,-84256.38,11224.35,0.0,0.0,0.0,0.0,5
-76273.605,-26903.205,-84245.94,11234.43,0.0,0.0,0.0,0.0,5
-76274.01,-26905.5,-84260.79,11220.3,0.0,0.0,0.0,0.0,5
-76273.83,-26903.295,-84247.425,11234.97,0.0,0.0,0.0,0.0,5
-76272.03,-26904.69,-84243.555,11237.355,0.0,0.0,0.0,0.0,5
-76273.11,-26902.62,-84245.22,11235.87,0.0,0.0,0.0,0.0,5
-76271.04,-26902.035,-84242.745,11239.335,0.0,0.0,0.0,0.0,5
-76267.395,-26902.44,-84238.155,11242.71,0.0,0.0,0.0,0.0,5
-76271.58,-26906.985,-84241.935,11238.525,0.0,0.0,0.0,0.0,5
-76273.47,-26914.005,-84235.005,11248.02,0.0,0.0,0.0,0.0,5
-76267.935,-26917.47,-84237.705,11242.98,0.0,0.0,0.0,0.0,5
-76274.28,-26918.46,-84246.075,11236.14,0.0,0.0,0.0,0.0,5
-76274.685,-26920.89,-84244.635,11236.275,0.0,0.0,0.0,0.0,5
-76275.81,-26921.34,-84245.805,11232.045,0.0,0.0,0.0,0.0,5
-76273.02,-26925.255,-84239.19,11237.31,0.0,0.0,0.0,0.0,5
-76269.375,-26924.67,-84233.88,11244.33,0.0,0.0,0.0,0.0,5
-76277.79,-26925.3,-84243.69,11235.375,0.0,0.0,0.0,0.0,5
-76276.89,-26926.47,-84247.92,11224.17,0.0,0.0,0.0,0.0,5
-76277.25,-26917.92,-84237.48,11241.54,0.0,0.0,0.0,0.0,5
-76278.465,-26911.755,-84236.715,11249.91,0.0,0.0,0.0,0.0,5
-76277.475,-26912.61,-84249.99,11232.315,0.0,0.0,0.0,0.0,5
-76283.28,-26912.16,-84257.73,11222.28,0.0,0.0,0.0,0.0,5
-76281.165,-26911.035,-84254.535,11225.61,0.0,0.0,0.0,0.0,5
-76277.565,-26910.495,-84247.515,11233.305,0.0,0.0,0.0,0.0,5
-76276.665,-26911.665,-84246.165,11236.185,0.0,0.0,0.0,0.0,5
-76276.53,-26909.415,-84244.41,11239.155,0.0,0.0,0.0,0.0,5
-76278.69,-26908.02,-84241.62,11244.33,0.0,0.0,0.0,0.0,5
-76276.575,-26908.335,-84243.42,11246.535,0.0,0.0,0.0,0.0,5
-76274.28,-26904.33,-84251.52,11229.975,0.0,0.0,0.0,0.0,5
-76272.21,-26899.245,-84239.01,11241.225,0.0,0.0,0.0,0.0,5
-76275.63,-26900.685,-84251.565,11227.41,0.0,0.0,0.0,0.0,5
-76277.34,-26900.595,-84253.095,11227.005,0.0,0.0,0.0,0.0,5
-76276.215,-26902.62,-84248.37,11233.125,0.0,0.0,0.0,0.0,5
-76275.945,-26902.89,-84244.77,11237.94,0.0,0.0,0.0,0.0,5
-76274.055,-26903.295,-84241.98,11241.9,0.0,0.0,0.0,0.0,5
-76273.425,-26904.915,-84241.98,11239.38,0.0,0.0,0.0,0.0,5
-76275.09,-26909.415,-84242.115,11240.685,0.0,0.0,0.0,0.0,5
-76280.67,-26910.99,-84250.305,11236.815,0.0,0.0,0.0,0.0,5
-76289.04,-26908.605,-84262.05,11223.045,0.0,0.0,0.0,0.0,5
-76280.22,-26902.62,-84251.025,11233.35,0.0,0.0,0.0,0.0,5
-76282.335,-26902.665,-84244.5,11242.71,0.0,0.0,0.0,0.0,5
-76281.66,-26902.755,-84251.79,11232.72,0.0,0.0,0.0,0.0,5
-76276.08,-26901.585,-84242.97,11240.865,0.0,0.0,0.0,0.0,5
-76279.05,-26900.595,-84244.365,11237.265,0.0,0.0,0.0,0.0,5
-76278.33,-26902.035,-84240.855,11239.47,0.0,0.0,0.0,0.0,5
-76276.53,-26899.515,-84236.85,11244.375,0.0,0.0,0.0,0.0,5
-76280.175,-26899.83,-84242.205,11241.27,0.0,0.0,0.0,0.0,5
-76284.855,-26901.945,-84252.87,11228.805,0.0,0.0,0.0,0.0,5
-76283.73,-26897.085,-84248.19,11231.595,0.0,0.0,0.0,0.0,5
-76281.48,-26889.435,-84243.915,11237.58,0.0,0.0,0.0,0.0,5
-76283.145,-26888.04,-84241.845,11245.095,0.0,0.0,0.0,0.0,5
-76282.29,-26887.14,-84239.91,11243.295,0.0,0.0,0.0,0.0,5
-76276.305,-26886.51,-84243.195,11234.97,0.0,0.0,0.0,0.0,5
-76275.765,-26884.71,-84245.67,11233.665,0.0,0.0,0.0,0.0,5
-76276.215,-26885.205,-84238.83,11242.485,0.0,0.0,0.0,0.0,5
-76276.755,-26884.665,-84237.345,11244.195,0.0,0.0,0.0,0.0,5
-76277.88,-26886.105,-84242.835,11237.715,0.0,0.0,0.0,0.0,5
-76276.395,-26884.8,-84234.915,11248.38,0.0,0.0,0.0,0.0,5
-76276.845,-26877.735,-84240.18,11242.62,0.0,0.0,0.0,0.0,5
-76275.72,-26870.94,-84242.295,11240.37,0.0,0.0,0.0,0.0,5
-76277.7,-26871.435,-84244.95,11239.11,0.0,0.0,0.0,0.0,5
-76276.8,-26872.695,-84239.01,11245.185,0.0,0.0,0.0,0.0,5
-76274.28,-26874.27,-84233.295,11252.88,0.0,0.0,0.0,0.0,5
-76280.31,-26874.99,-84241.935,11247.03,0.0,0.0,0.0,0.0,5
-76278.69,-26876.43,-84239.37,11244.915,0.0,0.0,0.0,0.0,5
-76273.02,-26878.275,-84238.695,11241.135,0.0,0.0,0.0,0.0,5
-76276.62,-26881.695,-84242.205,11240.235,0.0,0.0,0.0,0.0,5
-76273.335,-26879.715,-84245.58,11232.72,0.0,0.0,0.0,0.0,5
-76274.64,-26869.23,-84237.705,11242.485,0.0,0.0,0.0,0.0,5
-76277.43,-26862.39,-84241.215,11238.885,0.0,0.0,0.0,0.0,5
-76275.945,-26861.58,-84232.8,11246.265,0.0,0.0,0.0,0.0,5
-76278.105,-26863.29,-84245.715,11233.26,0.0,0.0,0.0,0.0,5
-76281.525,-26866.935,-84249.63,11232.54,0.0,0.0,0.0,0.0,5
-76281.795,-26868.645,-84242.835,11241.81,0.0,0.0,0.0,0.0,5
-76280.355,-26869.455,-84241.8,11242.215,0.0,0.0,0.0,0.0,5
-76281.57,-26868.915,-84241.62,11245.32,0.0,0.0,0.0,0.0,5
-76287.555,-26869.68,-84239.505,11250.36,0.0,0.0,0.0,0.0,5
-76285.305,-26867.655,-84250.17,11231.37,0.0,0.0,0.0,0.0,5
-76284.315,-26858.34,-84253.815,11225.7,0.0,0.0,0.0,0.0,5
-76287.78,-26851.635,-84249.54,11234.07,0.0,0.0,0.0,0.0,5
-76287.195,-26853.075,-84247.965,11235.825,0.0,0.0,0.0,0.0,5
-76285.98,-26854.02,-84247.245,11236.32,0.0,0.0,0.0,0.0,5
-76285.89,-26856.945,-84249.225,11237.85,0.0,0.0,0.0,0.0,5
-76283.865,-26855.46,-84243.78,11241.405,0.0,0.0,0.0,0.0,5
-76280.49,-26854.155,-84246.3,11234.745,0.0,0.0,0.0,0.0,5
-76280.04,-26853.75,-84238.245,11244.825,0.0,0.0,0.0,0.0,5
-76277.88,-26855.1,-84230.28,11254.95,0.0,0.0,0.0,0.0,5
-76276.845,-26855.415,-84227.085,11258.91,0.0,0.0,0.0,0.0,5
-76279.005,-26851.68,-84231.765,11255.445,0.0,0.0,0.0,0.0,5
-76279.5,-26849.295,-84230.55,11255.4,0.0,0.0,0.0,0.0,5
-76280.895,-26850.195,-84245.13,11238.21,0.0,0.0,0.0,0.0,5
-76284.63,-26849.34,-84247.155,11235.96,0.0,0.0,0.0,0.0,5
-76286.115,-26850.285,-84246.03,11239.065,0.0,0.0,0.0,0.0,5
-76287.24,-26849.52,-84243.195,11244.645,0.0,0.0,0.0,0.0,5
-76288.14,-26848.98,-84247.65,11239.245,0.0,0.0,0.0,0.0,5
-76287.51,-26848.71,-84242.97,11242.215,0.0,0.0,0.0,0.0,5
-76284.18,-26851.635,-84237.615,11247.525,0.0,0.0,0.0,0.0,5
-76284.72,-26853.255,-84234.78,11251.98,0.0,0.0,0.0,0.0,5
-76280.895,-26853.03,-84235.095,11250.855,0.0,0.0,0.0,0.0,5
-76285.62,-26851.005,-84235.59,11252.655,0.0,0.0,0.0,0.0,5
-76285.44,-26851.815,-84241.575,11245.455,0.0,0.0,0.0,0.0,5
-76284.225,-26852.535,-84245.4,11238.66,0.0,0.0,0.0,0.0,5
-76290.21,-26854.965,-84247.155,11236.5,0.0,0.0,0.0,0.0,5
-76286.7,-26854.38,-84242.43,11240.865,0.0,0.0,0.0,0.0,5
-76289.895,-26856.585,-84242.88,11241.27,0.0,0.0,0.0,0.0,5
-76293.765,-26855.955,-84247.02,11239.56,0.0,0.0,0.0,0.0,5
-76295.745,-26856.135,-84244.14,11244.24,0.0,0.0,0.0,0.0,5
-76293.765,-26855.415,-84243.555,11242.53,0.0,0.0,0.0,0.0,5
-76290.705,-26850.915,-84240.63,11241.63,0.0,0.0,0.0,0.0,5
-76291.965,-26846.505,-84238.29,11246.85,0.0,0.0,0.0,0.0,5
-76291.335,-26846.82,-84235.815,11253.735,0.0,0.0,0.0,0.0,5
-76289.715,-26852.355,-84245.58,11240.01,0.0,0.0,0.0,0.0,5
-76289.265,-26855.64,-84245.13,11238.255,0.0,0.0,0.0,0.0,5
-76290.84,-26854.785,-84237.255,11249.73,0.0,0.0,0.0,0.0,5
-76288.14,-26856.405,-84229.965,11255.805,0.0,0.0,0.0,0.0,5
-76287.465,-26856.495,-84238.38,11246.085,0.0,0.0,0.0,0.0,5
-76284.495,-26857.395,-84239.82,11243.88,0.0,0.0,0.0,0.0,5
-76284.765,-26857.395,-84236.58,11248.335,0.0,0.0,0.0,0.0,5
-76283.73,-26848.395,-84239.055,11245.32,0.0,0.0,0.0,0.0,5
-76285.665,-26840.205,-84241.17,11244.78,0.0,0.0,0.0,0.0,5
-76285.98,-26839.89,-84238.965,11242.44,0.0,0.0,0.0,0.0,5
-76287.645,-26840.925,-84239.37,11241.135,0.0,0.0,0.0,0.0,5
-76287.465,-26843.13,-84240.135,11241.495,0.0,0.0,0.0,0.0,5
-76286.52,-26841.6,-84231.18,11250.945,0.0,0.0,0.0,0.0,5
-76287.555,-26841.24,-84231.135,11251.98,0.0,0.0,0.0,0.0,5
-76286.7,-26840.34,-84231.855,11250.09,0.0,0.0,0.0,0.0,5
-76290.615,-26840.295,-84235.14,11247.12,0.0,0.0,0.0,0.0,5
-76286.52,-26837.325,-84234.87,11242.44,0.0,0.0,0.0,0.0,5
-76288.32,-26827.56,-84233.88,11245.095,0.0,0.0,0.0,0.0,5
-76293.18,-26822.07,-84245.985,11231.28,0.0,0.0,0.0,0.0,5
-76292.1,-26824.14,-84237.12,11241.585,0.0,0.0,0.0,0.0,5
-76290.345,-26823.915,-84231.09,11249.415,0.0,0.0,0.0,0.0,5
-76291.47,-26823.87,-84236.13,11243.835,0.0,0.0,0.0,0.0,5
-76293.45,-26823.015,-84245.49,11233.53,0.0,0.0,0.0,0.0,5
-76291.47,-26822.7,-84231.405,11249.055,0.0,0.0,0.0,0.0,5
-76295.115,-26822.7,-84232.08,11252.34,0.0,0.0,0.0,0.0,5
-76295.97,-26824.815,-84238.56,11245.635,0.0,0.0,0.0,0.0,5
-76291.245,-26824.77,-84234.15,11251.17,0.0,0.0,0.0,0.0,5
-76288.14,-26818.2,-84226.455,11258.19,0.0,0.0,0.0,0.0,5
-76287.78,-26812.035,-84229.74,11253.735,0.0,0.0,0.0,0.0,5
-76282.29,-26811.765,-84219.03,11266.38,0.0,0.0,0.0,0.0,5
-76284.63,-26812.26,-84220.965,11266.74,0.0,0.0,0.0,0.0,5
-76288.14,-26813.115,-84234.915,11246.265,0.0,0.0,0.0,0.0,5
-76290.57,-26811.36,-84237.48,11244.33,0.0,0.0,0.0,0.0,5
-76293.675,-26812.845,-84238.245,11244.375,0.0,0.0,0.0,0.0,5
-76291.38,-26815.005,-84229.155,11255.085,0.0,0.0,0.0,0.0,5
-76291.47,-26818.02,-84230.145,11252.7,0.0,0.0,0.0,0.0,5
-76289.58,-26818.02,-84231.405,11247.795,0.0,0.0,0.0,0.0,5
-76291.065,-26813.97,-84227.985,11258.46,0.0,0.0,0.0,0.0,5
-76292.19,-26808.975,-84235.77,11246.085,0.0,0.0,0.0,0.0,5
-76293.72,-26809.74,-84240.99,11241.81,0.0,0.0,0.0,0.0,5
-76292.865,-26810.055,-84246.3,11234.61,0.0,0.0,0.0,0.0,5
-76293.63,-26811.27,-84239.685,11243.205,0.0,0.0,0.0,0.0,5
-76289.76,-26810.73,-84232.89,11248.56,0.0,0.0,0.0,0.0,5
-76292.505,-26812.89,-84232.305,11252.295,0.0,0.0,0.0,0.0,5
-76290.03,-26817.03,-84229.425,11256.03,0.0,0.0,0.0,0.0,5
-76285.17,-26821.08,-84222.945,11258.28,0.0,0.0,0.0,0.0,5
-76288.68,-26821.305,-84221.28,11263.5,0.0,0.0,0.0,0.0,5
-76291.515,-26816.4,-84231.855,11252.97,0.0,0.0,0.0,0.0,5
-76292.505,-26810.145,-84236.22,11249.145,0.0,0.0,0.0,0.0,5
-76292.955,-26809.335,-84236.49,11247.66,0.0,0.0,0.0,0.0,5
-76289.04,-26808.345,-84212.73,11275.47,0.0,0.0,0.0,0.0,5
-76287.195,-26808.255,-84217.86,11269.35,0.0,0.0,0.0,0.0,5
-76291.83,-26806.86,-84235.905,11250.675,0.0,0.0,0.0,0.0,5
-76296.87,-26808.21,-84242.97,11240.055,0.0,0.0,0.0,0.0,5
-76297.59,-26806.095,-84228.165,11258.685,0.0,0.0,0.0,0.0,5
-76289.22,-26805.645,-84225.78,11256.48,0.0,0.0,0.0,0.0,5
-76288.5,-26804.34,-84222.945,11260.395,0.0,0.0,0.0,0.0,5
-76289.85,-26793.72,-84223.71,11260.575,0.0,0.0,0.0,0.0,5
-76290.525,-26787.96,-84223.935,11259.675,0.0,0.0,0.0,0.0,5
-76288.995,-26788.725,-84223.575,11258.505,0.0,0.0,0.0,0.0,5
-76290.75,-26788.59,-84222.495,11259.72,0.0,0.0,0.0,0.0,5
-76290.75,-26791.11,-84221.865,11262.06,0.0,0.0,0.0,0.0,5
-76290.03,-26791.605,-84224.655,11258.865,0.0,0.0,0.0,0.0,5
-76291.065,-26791.695,-84221.37,11264.13,0.0,0.0,0.0,0.0,5
-76289.31,-26789.175,-84214.665,11271.735,0.0,0.0,0.0,0.0,5
-76290.21,-26789.265,-84216.105,11268.585,0.0,0.0,0.0,0.0,5
-76289.49,-26788.59,-84214.575,11269.62,0.0,0.0,0.0,0.0,5
-76292.28,-26783.64,-84219.885,11265.75,0.0,0.0,0.0,0.0,5
-76293.495,-26778.69,-84223.17,11262.78,0.0,0.0,0.0,0.0,5
-76292.01,-26779.77,-84220.065,11267.1,0.0,0.0,0.0,0.0,5
-76291.92,-26779.905,-84218.805,11268.9,0.0,0.0,0.0,0.0,5
-76291.47,-26781.615,-84220.65,11264.715,0.0,0.0,0.0,0.0,5
-76290.435,-26779.815,-84217.995,11267.685,0.0,0.0,0.0,0.0,5
-76290.12,-26779.23,-84215.97,11270.16,0.0,0.0,0.0,0.0,5
-76289.895,-26776.665,-84213.855,11273.58,0.0,0.0,0.0,0.0,5
-76287.015,-26776.08,-84209.805,11279.07,0.0,0.0,0.0,0.0,5
-76291.155,-26778.06,-84212.055,11278.395,0.0,0.0,0.0,0.0,5
-76290.795,-26778.96,-84216.69,11268.27,0.0,0.0,0.0,0.0,5
-76291.965,-26778.42,-84215.205,11270.295,0.0,0.0,0.0,0.0,5
-76291.965,-26781.48,-84217.005,11265.255,0.0,0.0,0.0,0.0,5
-76295.7,-26781.705,-84217.05,11269.125,0.0,0.0,0.0,0.0,5
-76291.965,-26783.37,-84225.645,11255.715,0.0,0.0,0.0,0.0,5
-76291.695,-26782.92,-84209.265,11278.305,0.0,0.0,0.0,0.0,5
-76293.63,-26784.27,-84214.98,11278.08,0.0,0.0,0.0,0.0,5
-76292.595,-26784.81,-84220.065,11265.12,0.0,0.0,0.0,0.0,5
-76291.515,-26786.295,-84224.205,11259.18,0.0,0.0,0.0,0.0,5
-76294.8,-26786.115,-84222.765,11263.77,0.0,0.0,0.0,0.0,5
-76295.205,-26786.385,-84223.215,11263.86,0.0,0.0,0.0,0.0,5
-76294.98,-26784.855,-84219.57,11267.235,0.0,0.0,0.0,0.0,5
-76296.51,-26784.9,-84220.875,11265.12,0.0,0.0,0.0,0.0,5
-76293.405,-26783.64,-84217.545,11266.65,0.0,0.0,0.0,0.0,5
-76292.73,-26784.0,-84212.28,11271.06,0.0,0.0,0.0,0.0,5
-76291.605,-26783.73,-84207.375,11279.835,0.0,0.0,0.0,0.0,5
-76299.93,-26787.33,-84216.195,11272.05,0.0,0.0,0.0,0.0,5
-76303.125,-26788.995,-84224.745,11261.835,0.0,0.0,0.0,0.0,5
-76296.69,-26789.58,-84211.065,11276.1,0.0,0.0,0.0,0.0,5
-76295.295,-26791.83,-84216.555,11271.96,0.0,0.0,0.0,0.0,5
-76297.32,-26790.975,-84216.87,11269.665,0.0,0.0,0.0,0.0,5
-76300.245,-26788.23,-84221.145,11265.345,0.0,0.0,0.0,0.0,5
-76297.995,-26790.795,-84215.745,11270.925,0.0,0.0,0.0,0.0,5
-76296.555,-26792.37,-84211.515,11275.155,0.0,0.0,0.0,0.0,5
-76298.355,-26793.45,-84205.485,11284.29,0.0,0.0,0.0,0.0,5
-76297.905,-26797.095,-84214.665,11270.745,0.0,0.0,0.0,0.0,5
-76293.99,-26799.84,-84207.105,11276.28,0.0,0.0,0.0,0.0,5
-76293.855,-26800.02,-84206.7,11276.28,0.0,0.0,0.0,0.0,5
-76296.33,-26802.675,-84202.47,11284.74,0.0,0.0,0.0,0.0,5
-76297.41,-26801.46,-84208.365,11279.52,0.0,0.0,0.0,0.0,5
-76297.68,-26794.44,-84219.975,11264.85,0.0,0.0,0.0,0.0,5
-76299.3,-26791.83,-84203.91,11284.335,0.0,0.0,0.0,0.0,5
-76298.805,-26794.305,-84201.39,11286.405,0.0,0.0,0.0,0.0,5
-76297.005,-26796.645,-84197.745,11289.6,0.0,0.0,0.0,0.0,5
-76292.1,-26800.785,-84206.79,11271.015,0.0,0.0,0.0,0.0,5
-76291.47,-26806.95,-84199.365,11281.095,0.0,0.0,0.0,0.0,5
-76291.605,-26812.35,-84198.285,11283.03,0.0,0.0,0.0,0.0,5
-76290.525,-26816.265,-84200.355,11282.535,0.0,0.0,0.0,0.0,5
-76288.86,-26819.595,-84195.45,11288.7,0.0,0.0,0.0,0.0,5
-76288.725,-26817.3,-84195.09,11290.23,0.0,0.0,0.0,0.0,5
-76295.07,-26811.045,-84188.07,11296.08,0.0,0.0,0.0,0.0,5
-76303.17,-26810.595,-84198.06,11285.865,0.0,0.0,0.0,0.0,5
-76299.12,-26815.68,-84205.89,11274.66,0.0,0.0,0.0,0.0,5
-76289.49,-26817.48,-84197.205,11278.26,0.0,0.0,0.0,0.0,5
-76290.255,-26820.855,-84202.2,11271.42,0.0,0.0,0.0,0.0,5
-76293.315,-26819.685,-84196.305,11283.435,0.0,0.0,0.0,0.0,5
-76289.22,-26819.325,-84196.215,11282.085,0.0,0.0,0.0,0.0,5
-76289.49,-26819.325,-84195.405,11281.095,0.0,0.0,0.0,0.0,5
-76291.47,-26821.08,-84193.245,11280.06,0.0,0.0,0.0,0.0,5
-76288.905,-26820.855,-84191.49,11281.545,0.0,0.0,0.0,0.0,5
-76293.045,-26817.795,-84194.19,11282.31,0.0,0.0,0.0,0.0,5
-76303.8,-26815.545,-84202.605,11282.445,0.0,0.0,0.0,0.0,5
-76309.38,-26817.705,-84209.805,11279.655,0.0,0.0,0.0,0.0,5
-76307.265,-26822.385,-84214.935,11271.195,0.0,0.0,0.0,0.0,5
-76302.72,-26826.48,-84206.88,11279.385,0.0,0.0,0.0,0.0,5
-76302.495,-26828.685,-84202.695,11284.83,0.0,0.0,0.0,0.0,5
-76299.93,-26832.06,-84197.925,11289.825,0.0,0.0,0.0,0.0,5
-76288.14,-26833.905,-84200.895,11287.62,0.0,0.0,0.0,0.0,5
-76285.305,-26837.37,-84205.89,11281.635,0.0,0.0,0.0,0.0,5
-76302.81,-26839.26,-84202.695,11285.685,0.0,0.0,0.0,0.0,5
-76317.84,-26835.39,-84182.04,11301.12,0.0,0.0,0.0,0.0,5
-76307.265,-26833.59,-84190.365,11292.345,0.0,0.0,0.0,0.0,5
-76301.775,-26835.255,-84197.565,11286.09,0.0,0.0,0.0,0.0,5
-76300.83,-26835.48,-84197.565,11287.935,0.0,0.0,0.0,0.0,5
-76299.975,-26837.19,-84195.27,11288.43,0.0,0.0,0.0,0.0,5
-76299.66,-26838.99,-84195.405,11289.51,0.0,0.0,0.0,0.0,5
-76300.92,-26843.085,-84194.415,11290.455,0.0,0.0,0.0,0.0,5
-76305.735,-26843.265,-84197.34,11289.87,0.0,0.0,0.0,0.0,5
-76309.605,-26846.28,-84196.755,11297.16,0.0,0.0,0.0,0.0,5
-76304.25,-26849.115,-84195.18,11297.565,0.0,0.0,0.0,0.0,5
-76299.93,-26841.735,-84187.845,11299.635,0.0,0.0,0.0,0.0,5
-76302.36,-26836.425,-84190.905,11293.605,0.0,0.0,0.0,0.0,5
-76301.595,-26837.73,-84192.075,11291.31,0.0,0.0,0.0,0.0,5
-76301.1,-26841.555,-84183.525,11303.505,0.0,0.0,0.0,0.0,5
-76299.48,-26847.0,-84185.37,11296.98,0.0,0.0,0.0,0.0,5
-76299.93,-26852.895,-84190.23,11291.085,0.0,0.0,0.0,0.0,5
-76300.2,-26858.79,-84185.775,11298.51,0.0,0.0,0.0,0.0,5
-76300.47,-26862.39,-84184.65,11301.12,0.0,0.0,0.0,0.0,5
-76300.245,-26865.72,-84184.29,11302.335,0.0,0.0,0.0,0.0,5
-76300.02,-26864.955,-84183.795,11304.72,0.0,0.0,0.0,0.0,5
-76300.56,-26859.96,-84181.365,11307.735,0.0,0.0,0.0,0.0,5
-76298.175,-26854.92,-84178.845,11310.03,0.0,0.0,0.0,0.0,5
-76296.15,-26856.81,-84178.575,11311.875,0.0,0.0,0.0,0.0,5
-76298.4,-26859.915,-84181.86,11312.01,0.0,0.0,0.0,0.0,5
-76298.58,-26861.895,-84174.795,11314.305,0.0,0.0,0.0,0.0,5
-76299.255,-26861.625,-84178.71,11304.09,0.0,0.0,0.0,0.0,5
-76306.77,-26863.605,-84205.71,11279.655,0.0,0.0,0.0,0.0,5
-76313.115,-26864.64,-84198.645,11290.86,0.0,0.0,0.0,0.0,5
-76304.745,-26866.44,-84185.955,11301.66,0.0,0.0,0.0,0.0,5
-76294.44,-26867.565,-84181.77,11305.53,0.0,0.0,0.0,0.0,5
-76293.765,-26864.37,-84187.98,11299.005,0.0,0.0,0.0,0.0,5
-76299.84,-26861.715,-84185.055,11306.61,0.0,0.0,0.0,0.0,5
-76304.835,-26864.46,-84184.02,11310.615,0.0,0.0,0.0,0.0,5
-76299.39,-26867.205,-84166.2,11327.85,0.0,0.0,0.0,0.0,5
-76299.435,-26867.925,-84153.87,11344.77,0.0,0.0,0.0,0.0,5
-76319.1,-26869.77,-84161.43,11331.36,0.0,0.0,0.0,0.0,5
-76329.315,-26873.505,-84171.285,11317.095,0.0,0.0,0.0,0.0,5
-76314.555,-26875.44,-84174.975,11316.24,0.0,0.0,0.0,0.0,5
-76296.69,-26877.87,-84163.365,11322.315,0.0,0.0,0.0,0.0,5
-76279.995,-26880.165,-84164.94,11314.98,0.0,0.0,0.0,0.0,5
-76293.855,-26879.805,-84192.525,11290.59,0.0,0.0,0.0,0.0,5
-76333.77,-26879.625,-84211.29,11285.46,0.0,0.0,0.0,0.0,5
-76331.745,-26880.48,-84188.745,11304.945,0.0,0.0,0.0,0.0,5
-76315.86,-26879.04,-84179.835,11312.46,0.0,0.0,0.0,0.0,5
-76326.03,-26880.255,-84182.715,11315.07,0.0,0.0,0.0,0.0,5
-76341.96,-26881.38,-84187.665,11309.31,0.0,0.0,0.0,0.0,5
-76355.37,-26884.395,-84182.04,11320.605,0.0,0.0,0.0,0.0,5
-76344.03,-26886.555,-84195.945,11306.97,0.0,0.0,0.0,0.0,5
-76318.605,-26887.635,-84170.925,11318.175,0.0,0.0,0.0,0.0,5
-76293.765,-26887.365,-84175.92,11309.31,0.0,0.0,0.0,0.0,5
-76287.78,-26882.28,-84177.63,11315.61,0.0,0.0,0.0,0.0,5
-76270.5,-26876.205,-84148.29,11343.15,0.0,0.0,0.0,0.0,5
-76262.13,-26874.99,-84112.785,11376.63,0.0,0.0,0.0,0.0,5
-76274.235,-26875.08,-84131.865,11353.725,0.0,0.0,0.0,0.0,5
-76321.575,-26879.31,-84195.405,11296.35,0.0,0.0,0.0,0.0,5
-76343.265,-26881.47,-84200.49,11290.41,0.0,0.0,0.0,0.0,5
-76345.065,-26883.135,-84167.91,11321.055,0.0,0.0,0.0,0.0,5
-76366.305,-26886.24,-84166.92,11325.51,0.0,0.0,0.0,0.0,5
-76357.845,-26889.66,-84172.14,11323.62,0.0,0.0,0.0,0.0,5
-76311.045,-26887.815,-84177.09,11311.47,0.0,0.0,0.0,0.0,5
-76301.64,-26878.86,-84172.275,11321.505,0.0,0.0,0.0,0.0,5
-76318.695,-26874.495,-84180.915,11322.27,0.0,0.0,0.0,0.0,5
-76325.49,-26876.52,-84182.715,11329.38,0.0,0.0,0.0,0.0,5
-76281.21,-26873.28,-84161.43,11342.88,0.0,0.0,0.0,0.0,5
-76270.41,-26872.29,-84127.635,11353.68,0.0,0.0,0.0,0.0,5
-76266.72,-26870.58,-84077.19,11403.495,0.0,0.0,0.0,0.0,5
-76293.63,-26876.43,-84128.535,11358.72,0.0,0.0,0.0,0.0,5
-76301.37,-26880.705,-84170.52,11321.955,0.0,0.0,0.0,0.0,5
-76355.19,-26885.925,-84198.33,11296.62,0.0,0.0,0.0,0.0,5
-76375.35,-26890.47,-84198.96,11304.135,0.0,0.0,0.0,0.0,5
-76340.97,-26900.685,-84180.195,11314.395,0.0,0.0,0.0,0.0,5
-76311.99,-26900.91,-84152.16,11342.205,0.0,0.0,0.0,0.0,5
-76320.63,-26900.82,-84151.395,11348.505,0.0,0.0,0.0,0.0,5
-76318.83,-26902.89,-84164.13,11334.06,0.0,0.0,0.0,0.0,5
-76326.03,-26907.93,-84176.64,11321.055,0.0,0.0,0.0,0.0,5
-76328.1,-26908.515,-84161.655,11337.705,0.0,0.0,0.0,0.0,5
-76320.36,-26908.875,-84144.015,11356.92,0.0,0.0,0.0,0.0,5
-76304.07,-26907.615,-84154.095,11345.04,0.0,0.0,0.0,0.0,5
-76315.5,-26907.615,-84156.255,11362.455,0.0,0.0,0.0,0.0,5
-76329.18,-26911.035,-84214.17,11313.045,0.0,0.0,0.0,0.0,5
-76325.445,-26911.17,-84247.38,11292.255,0.0,0.0,0.0,0.0,5
-76312.395,-26910.495,-84241.845,11299.725,0.0,0.0,0.0,0.0,5
-76319.595,-26910.27,-84179.43,11325.96,0.0,0.0,0.0,0.0,5
-76301.325,-26907.39,-84101.445,11359.62,0.0,0.0,0.0,0.0,5
-76334.94,-26910.405,-84096.765,11372.895,0.0,0.0,0.0,0.0,5
-76326.165,-26912.61,-84149.64,11352.195,0.0,0.0,0.0,0.0,5
-76326.075,-26913.105,-84156.3,11347.425,0.0,0.0,0.0,0.0,5
-76346.955,-26911.665,-84146.13,11368.35,0.0,0.0,0.0,0.0,5
-76348.44,-26915.265,-84199.095,11340.45,0.0,0.0,0.0,0.0,5
-76338.18,-26919.99,-84281.04,11290.005,0.0,0.0,0.0,0.0,5
-76336.965,-26918.505,-84259.44,11302.065,0.0,0.0,0.0,0.0,5
-76322.79,-26911.17,-84134.565,11366.01,0.0,0.0,0.0,0.0,5
-76333.59,-26909.28,-84078.72,11382.57,0.0,0.0,0.0,0.0,5
-76354.2,-26909.415,-84089.97,11376.99,0.0,0.0,0.0,0.0,5
-76343.715,-26912.34,-84122.19,11363.58,0.0,0.0,0.0,0.0,5
-76321.44,-26912.205,-84137.4,11357.595,0.0,0.0,0.0,0.0,5
-76307.04,-26913.015,-84148.335,11353.455,0.0,0.0,0.0,0.0,5
-76321.17,-26912.79,-84167.145,11343.42,0.0,0.0,0.0,0.0,5
-76311.27,-26914.635,-84174.3,11332.17,0.0,0.0,0.0,0.0,5
-76295.88,-26911.845,-84137.04,11358.0,0.0,0.0,0.0,0.0,5
-76322.34,-26899.785,-84127.68,11372.94,0.0,0.0,0.0,0.0,5
-76337.595,-26894.61,-84144.6,11367.585,0.0,0.0,0.0,0.0,5
-76334.625,-26895.06,-84134.16,11382.435,0.0,0.0,0.0,0.0,5
-76305.15,-26891.145,-84112.47,11399.04,0.0,0.0,0.0,0.0,5
-76293.27,-26891.28,-84115.935,11394.27,0.0,0.0,0.0,0.0,5
-76300.02,-26893.89,-84124.53,11393.01,0.0,0.0,0.0,0.0,5
-76299.12,-26897.4,-84128.31,11389.41,0.0,0.0,0.0,0.0,5
-76308.03,-26899.875,-84137.49,11380.185,0.0,0.0,0.0,0.0,5
-76320.72,-26902.62,-84144.825,11374.92,0.0,0.0,0.0,0.0,5
-76319.415,-26902.71,-84139.29,11380.905,0.0,0.0,0.0,0.0,5
-76313.745,-26897.13,-84146.445,11358.0,0.0,0.0,0.0,0.0,5
-76311.54,-26890.785,-84128.13,11373.525,0.0,0.0,0.0,0.0,5
-76283.1,-26891.28,-84139.515,11357.01,0.0,0.0,0.0,0.0,5
-76329.585,-26895.69,-84153.33,11358.495,0.0,0.0,0.0,0.0,5
-76349.34,-26900.325,-84169.53,11349.81,0.0,0.0,0.0,0.0,5
-76335.795,-26900.37,-84160.755,11364.57,0.0,0.0,0.0,0.0,5
-76326.435,-26901.54,-84157.92,11362.365,0.0,0.0,0.0,0.0,5
-76340.79,-26901.45,-84145.14,11378.025,0.0,0.0,0.0,0.0,5
-76338.18,-26903.79,-84149.19,11374.11,0.0,0.0,0.0,0.0,5
-76329.585,-26902.215,-84141.765,11382.435,0.0,0.0,0.0,0.0,5
-76327.785,-26892.9,-84142.53,11387.97,0.0,0.0,0.0,0.0,5
-76335.48,-26890.425,-84169.035,11354.085,0.0,0.0,0.0,0.0,5
-76355.37,-26894.43,-84169.395,11357.28,0.0,0.0,0.0,0.0,5
-76344.93,-26892.585,-84142.44,11384.955,0.0,0.0,0.0,0.0,5
-76343.4,-26891.73,-84132.54,11396.475,0.0,0.0,0.0,0.0,5
-76329.09,-26893.305,-84124.755,11404.98,0.0,0.0,0.0,0.0,5
-76322.115,-26897.895,-84147.12,11378.52,0.0,0.0,0.0,0.0,5
-76344.795,-26898.12,-84157.47,11375.55,0.0,0.0,0.0,0.0,5
-76352.22,-26896.32,-84151.845,11381.805,0.0,0.0,0.0,0.0,5
-76334.895,-26893.575,-84145.005,11385.135,0.0,0.0,0.0,0.0,5
-76334.535,-26885.475,-84147.39,11387.25,0.0,0.0,0.0,0.0,5
-76365.18,-26880.795,-84137.805,11397.06,0.0,0.0,0.0,0.0,5
-76340.25,-26882.865,-84138.345,11392.335,0.0,0.0,0.0,0.0,5
-76305.465,-26887.14,-84182.985,11378.97,0.0,0.0,0.0,0.0,5
-76324.455,-26891.82,-84231.135,11373.435,0.0,0.0,0.0,0.0,5
-76343.67,-26893.305,-84220.56,11391.345,0.0,0.0,0.0,0.0,5
-76361.67,-26896.275,-84171.105,11372.31,0.0,0.0,0.0,0.0,5
-76352.58,-26893.98,-84043.305,11421.18,0.0,0.0,0.0,0.0,5
-76342.68,-26892.855,-84038.355,11423.34,0.0,0.0,0.0,0.0,5
-76328.73,-26892.135,-84091.095,11403.135,0.0,0.0,0.0,0.0,5
-76304.115,-26890.965,-84095.82,11418.615,0.0,0.0,0.0,0.0,5
-76284.72,-26890.605,-84087.495,11426.355,0.0,0.0,0.0,0.0,5
-76286.52,-26891.55,-84088.53,11432.385,0.0,0.0,0.0,0.0,5
-76312.35,-26894.655,-84117.33,11409.255,0.0,0.0,0.0,0.0,5
-76344.03,-26899.92,-84133.845,11390.265,0.0,0.0,0.0,0.0,5
-76337.865,-26900.505,-84123.63,11405.52,0.0,0.0,0.0,0.0,5
-76346.235,-26903.79,-84128.895,11411.55,0.0,0.0,0.0,0.0,5
-76354.02,-26906.535,-84136.905,11413.26,0.0,0.0,0.0,0.0,5
-76322.43,-26908.155,-84131.37,11407.635,0.0,0.0,0.0,0.0,5
-76293.9,-26907.435,-84102.39,11420.505,0.0,0.0,0.0,0.0,5
-76305.645,-26911.89,-84080.97,11434.635,0.0,0.0,0.0,0.0,5
-76325.31,-26918.64,-84108.78,11415.51,0.0,0.0,0.0,0.0,5
-76333.095,-26922.915,-84137.895,11393.46,0.0,0.0,0.0,0.0,5
-76343.4,-26926.02,-84126.87,11411.46,0.0,0.0,0.0,0.0,5
-76328.145,-26931.42,-84125.34,11412.225,0.0,0.0,0.0,0.0,5
-76318.29,-26933.13,-84099.015,11430.45,0.0,0.0,0.0,0.0,5
-76315.59,-26935.47,-84109.86,11424.87,0.0,0.0,0.0,0.0,5
-76315.095,-26937.27,-84100.59,11438.37,0.0,0.0,0.0,0.0,5
-76320.855,-26941.95,-84102.84,11454.705,0.0,0.0,0.0,0.0,5
-76381.155,-26947.125,-84186.855,11413.035,0.0,0.0,0.0,0.0,5
-76367.52,-26942.175,-84254.445,11369.565,0.0,0.0,0.0,0.0,5
-76329.405,-26936.55,-84220.065,11376.765,0.0,0.0,0.0,0.0,5
-76293.855,-26933.355,-84096.72,11407.05,0.0,0.0,0.0,0.0,5
-76283.73,-26930.79,-83997.99,11434.455,0.0,0.0,0.0,0.0,5
-76295.52,-26933.31,-84032.415,11446.11,0.0,0.0,0.0,0.0,5
-76299.345,-26932.545,-84048.345,11456.1,0.0,0.0,0.0,0.0,5
-76321.08,-26936.37,-84059.82,11455.695,0.0,0.0,0.0,0.0,5
-76333.365,-26942.04,-84083.085,11449.71,0.0,0.0,0.0,0.0,5
-76316.445,-26947.305,-84098.745,11440.035,0.0,0.0,0.0,0.0,5
-76312.305,-26947.62,-84101.085,11431.395,0.0,0.0,0.0,0.0,5
-76318.335,-26944.065,-84089.205,11438.505,0.0,0.0,0.0,0.0,5
-76336.74,-26943.885,-84100.86,11435.13,0.0,0.0,0.0,0.0,5
-76330.305,-26947.26,-84110.445,11431.26,0.0,0.0,0.0,0.0,5
-76328.595,-26947.26,-84114.945,11433.375,0.0,0.0,0.0,0.0,5
-76331.655,-26947.485,-84104.73,11445.705,0.0,0.0,0.0,0.0,5
-76313.655,-26948.205,-84109.05,11436.48,0.0,0.0,0.0,0.0,5
-76322.205,-26951.265,-84115.44,11426.67,0.0,0.0,0.0,0.0,5
-76356.99,-26952.57,-84101.355,11441.52,0.0,0.0,0.0,0.0,5
-76343.445,-26954.505,-84099.33,11448.63,0.0,0.0,0.0,0.0,5
-76350.33,-26952.12,-84099.96,11451.465,0.0,0.0,0.0,0.0,5
-76344.75,-26941.995,-84103.29,11445.435,0.0,0.0,0.0,0.0,5
-76308.705,-26937.945,-84104.91,11442.195,0.0,0.0,0.0,0.0,5
-76305.015,-26940.105,-84088.26,11458.035,0.0,0.0,0.0,0.0,5
-76322.52,-26939.655,-84097.44,11445.57,0.0,0.0,0.0,0.0,5
-76329.63,-26941.14,-84108.69,11431.08,0.0,0.0,0.0,0.0,5
-76330.62,-26941.815,-84100.68,11442.735,0.0,0.0,0.0,0.0,5
-76339.665,-26944.065,-84094.515,11453.445,0.0,0.0,0.0,0.0,5
-76353.345,-26945.595,-84106.485,11449.71,0.0,0.0,0.0,0.0,5
-76343.895,-26947.755,-84105.72,11452.77,0.0,0.0,0.0,0.0,5
-76336.695,-26945.37,-84097.35,11454.12,0.0,0.0,0.0,0.0,5
-76357.845,-26933.67,-84106.665,11443.59,0.0,0.0,0.0,0.0,5
-76356.09,-26924.895,-84111.84,11441.88,0.0,0.0,0.0,0.0,5
-76341.33,-26924.67,-84115.17,11447.1,0.0,0.0,0.0,0.0,5
-76351.68,-26923.68,-84123.99,11447.37,0.0,0.0,0.0,0.0,5
-76336.92,-26922.51,-84114.18,11454.975,0.0,0.0,0.0,0.0,5
-76327.83,-26920.17,-84073.995,11476.395,0.0,0.0,0.0,0.0,5
-76324.68,-26919.945,-84051.63,11494.98,0.0,0.0,0.0,0.0,5
-76322.52,-26916.66,-84065.085,11482.02,0.0,0.0,0.0,0.0,5
-76338.135,-26918.505,-84076.92,11468.61,0.0,0.0,0.0,0.0,5
-76361.13,-26920.62,-84106.89,11452.455,0.0,0.0,0.0,0.0,5
-76344.615,-26912.52,-84125.79,11450.475,0.0,0.0,0.0,0.0,5
-76339.98,-26905.41,-84117.87,11459.205,0.0,0.0,0.0,0.0,5
-76332.825,-26906.67,-84100.725,11458.755,0.0,0.0,0.0,0.0,5
-76325.76,-26906.4,-84067.965,11468.52,0.0,0.0,0.0,0.0,5
-76332.69,-26907.615,-84064.77,11476.98,0.0,0.0,0.0,0.0,5
-76325.715,-26908.695,-84085.65,11455.695,0.0,0.0,0.0,0.0,5
-76327.965,-26911.44,-84092.265,11472.075,0.0,0.0,0.0,0.0,5
-76343.625,-26914.59,-84133.08,11467.89,0.0,0.0,0.0,0.0,5
-76357.89,-26918.37,-84159.855,11449.035,0.0,0.0,0.0,0.0,5
-76359.96,-26920.665,-84164.265,11429.37,0.0,0.0,0.0,0.0,5
-76335.165,-26912.97,-84108.015,11456.955,0.0,0.0,0.0,0.0,5
-76328.685,-26908.38,-84084.48,11474.145,0.0,0.0,0.0,0.0,5
-76345.47,-26910.09,-84080.655,11470.185,0.0,0.0,0.0,0.0,5
-76348.98,-26910.495,-84050.28,11494.485,0.0,0.0,0.0,0.0,5
-76325.805,-26914.545,-84062.565,11464.92,0.0,0.0,0.0,0.0,5
-76322.07,-26917.38,-84045.69,11465.145,0.0,0.0,0.0,0.0,5
-76343.58,-26919.54,-84043.395,11475.135,0.0,0.0,0.0,0.0,5
-76339.035,-26917.74,-84054.24,11488.455,0.0,0.0,0.0,0.0,5
-76313.07,-26918.505,-84057.525,11501.28,0.0,0.0,0.0,0.0,5
-76319.865,-26921.25,-84074.535,11483.01,0.0,0.0,0.0,0.0,5
-76332.195,-26918.91,-84074.22,11470.095,0.0,0.0,0.0,0.0,5
-76348.17,-26919.225,-84110.805,11459.97,0.0,0.0,0.0,0.0,5
-76347.81,-26923.185,-84130.965,11471.175,0.0,0.0,0.0,0.0,5
-76315.635,-26925.255,-84105.765,11479.905,0.0,0.0,0.0,0.0,5
-76302.72,-26927.46,-84040.11,11505.645,0.0,0.0,0.0,0.0,5
-76315.05,-26924.4,-83997.765,11517.57,0.0,0.0,0.0,0.0,5
-76347.585,-26925.75,-84048.345,11495.835,0.0,0.0,0.0,0.0,5
-76360.68,-26927.82,-84077.28,11482.245,0.0,0.0,0.0,0.0,5
-76348.98,-26929.035,-84073.095,11494.53,0.0,0.0,0.0,0.0,5
-76336.875,-26929.89,-84073.86,11497.995,0.0,0.0,0.0,0.0,5
-76326.66,-26927.28,-84105.225,11474.955,0.0,0.0,0.0,0.0,5
-76362.615,-26922.33,-84129.345,11480.535,0.0,0.0,0.0,0.0,5
-76400.28,-26924.085,-84132.09,11484.045,0.0,0.0,0.0,0.0,5
-76349.205,-26924.58,-84069.855,11492.19,0.0,0.0,0.0,0.0,5
-76310.865,-26923.545,-83963.295,11549.43,0.0,0.0,0.0,0.0,5
-76339.845,-26923.095,-83971.62,11546.775,0.0,0.0,0.0,0.0,5
-76333.68,-26926.83,-84060.0,11476.575,0.0,0.0,0.0,0.0,5
-76325.49,-26926.47,-84066.345,11477.205,0.0,0.0,0.0,0.0,5
-76340.43,-26928.585,-84062.79,11493.765,0.0,0.0,0.0,0.0,5
-76365.765,-26930.025,-84104.37,11477.205,0.0,0.0,0.0,0.0,5
-76369.14,-26923.41,-84171.735,11457.765,0.0,0.0,0.0,0.0,5
-76363.11,-26918.505,-84180.645,11461.5,0.0,0.0,0.0,0.0,5
-76348.125,-26917.515,-84140.235,11476.62,0.0,0.0,0.0,0.0,5
-76333.41,-26915.535,-84077.19,11496.78,0.0,0.0,0.0,0.0,5
-76313.88,-26917.74,-84040.245,11520.36,0.0,0.0,0.0,0.0,5
-76336.65,-26918.82,-84012.705,11521.935,0.0,0.0,0.0,0.0,5
-76345.02,-26920.215,-84008.79,11499.12,0.0,0.0,0.0,0.0,5
-76314.42,-26919.9,-84026.34,11491.065,0.0,0.0,0.0,0.0,5
-76324.365,-26923.14,-84022.2,11507.04,0.0,0.0,0.0,0.0,5
-76348.53,-26924.355,-84032.415,11503.89,0.0,0.0,0.0,0.0,5
-76372.38,-26919.765,-84069.72,11489.445,0.0,0.0,0.0,0.0,5
-76374.945,-26914.995,-84129.21,11482.65,0.0,0.0,0.0,0.0,5
-76351.365,-26915.895,-84200.22,11457.99,0.0,0.0,0.0,0.0,5
-76355.28,-26914.23,-84168.495,11465.145,0.0,0.0,0.0,0.0,5
-76345.245,-26911.62,-84042.9,11498.175,0.0,0.0,0.0,0.0,5
-76312.395,-26908.245,-83945.295,11539.53,0.0,0.0,0.0,0.0,5
-76297.095,-26908.515,-83914.92,11577.96,0.0,0.0,0.0,0.0,5
-76319.325,-26914.095,-83985.84,11538.9,0.0,0.0,0.0,0.0,5
-76335.525,-26918.145,-84042.315,11494.395,0.0,0.0,0.0,0.0,5
-76376.16,-26917.245,-84048.21,11497.23,0.0,0.0,0.0,0.0,5
-76375.62,-26914.32,-84060.585,11491.245,0.0,0.0,0.0,0.0,5
-76357.98,-26912.115,-84068.82,11494.305,0.0,0.0,0.0,0.0,5
-76368.825,-26913.87,-84055.68,11511.36,0.0,0.0,0.0,0.0,5
-76370.49,-26915.04,-84080.745,11486.61,0.0,0.0,0.0,0.0,5
-76360.68,-26917.695,-84112.245,11458.305,0.0,0.0,0.0,0.0,5
-76371.615,-26916.795,-84094.2,11481.03,0.0,0.0,0.0,0.0,5
-76370.4,-26917.38,-84067.56,11500.02,0.0,0.0,0.0,0.0,5
-76377.87,-26916.525,-84054.42,11511.27,0.0,0.0,0.0,0.0,5
-76414.815,-26919.81,-84156.12,11491.02,0.0,0.0,0.0,0.0,5
-76411.215,-26920.53,-84267.765,11442.645,0.0,0.0,0.0,0.0,5
-76357.575,-26914.77,-84202.02,11439.405,0.0,0.0,0.0,0.0,5
-76329.045,-26904.465,-83966.175,11522.43,0.0,0.0,0.0,0.0,5
-76301.685,-26901.495,-83911.185,11566.08,0.0,0.0,0.0,0.0,5
-76280.265,-26901.81,-83954.88,11545.155,0.0,0.0,0.0,0.0,5
-76310.91,-26904.42,-83967.615,11560.32,0.0,0.0,0.0,0.0,5
-76351.86,-26908.695,-84059.37,11504.88,0.0,0.0,0.0,0.0,5
-76377.195,-26912.34,-84104.37,11472.255,0.0,0.0,0.0,0.0,5
-76379.355,-26913.465,-84061.62,11505.69,0.0,0.0,0.0,0.0,5
-76377.285,-26915.355,-84011.94,11532.195,0.0,0.0,0.0,0.0,5
-76341.465,-26913.96,-84015.27,11546.91,0.0,0.0,0.0,0.0,5
-76352.31,-26910.315,-84009.915,11545.47,0.0,0.0,0.0,0.0,5
-76416.57,-26909.82,-84081.51,11528.01,0.0,0.0,0.0,0.0,5
-76431.105,-26915.13,-84209.535,11481.03,0.0,0.0,0.0,0.0,5
-76405.995,-26917.2,-84287.52,11412.54,0.0,0.0,0.0,0.0,5
-76324.815,-26911.035,-84099.915,11464.2,0.0,0.0,0.0,0.0,5
-76303.53,-26906.49,-83917.44,11536.605,0.0,0.0,0.0,0.0,5
-76327.83,-26909.82,-83951.91,11536.56,0.0,0.0,0.0,0.0,5
-76334.985,-26909.055,-84032.01,11523.78,0.0,0.0,0.0,0.0,5
-76362.84,-26910.45,-84079.44,11520.72,0.0,0.0,0.0,0.0,5
-76383.09,-26910.315,-84114.765,11499.21,0.0,0.0,0.0,0.0,5
-76413.87,-26897.67,-84111.525,11503.44,0.0,0.0,0.0,0.0,5
-76377.15,-26888.22,-84093.66,11501.82,0.0,0.0,0.0,0.0,5
-76296.015,-26881.74,-83952.225,11555.685,0.0,0.0,0.0,0.0,5
-76279.455,-26882.46,-83913.075,11570.76,0.0,0.0,0.0,0.0,5
-76312.53,-26888.625,-83939.715,11569.995,0.0,0.0,0.0,0.0,5
-76334.445,-26892.9,-83987.415,11563.695,0.0,0.0,0.0,0.0,5
-76387.995,-26900.82,-84107.25,11485.305,0.0,0.0,0.0,0.0,5
-76415.04,-26905.455,-84225.105,11448.585,0.0,0.0,0.0,0.0,5
-76406.85,-26908.425,-84264.39,11459.745,0.0,0.0,0.0,0.0,5
-76374.405,-26905.68,-84155.13,11472.435,0.0,0.0,0.0,0.0,5
-76355.955,-26894.52,-83915.73,11555.955,0.0,0.0,0.0,0.0,5
-76373.505,-26894.115,-83967.84,11547.495,0.0,0.0,0.0,0.0,5
-76374.225,-26899.425,-84055.005,11508.66,0.0,0.0,0.0,0.0,5
-76363.02,-26898.525,-84028.275,11516.22,0.0,0.0,0.0,0.0,5
-76362.93,-26899.47,-84026.52,11532.555,0.0,0.0,0.0,0.0,5
-76326.03,-26897.175,-84023.19,11531.07,0.0,0.0,0.0,0.0,5
-76317.21,-26895.78,-83946.06,11558.385,0.0,0.0,0.0,0.0,5
-76338.45,-26898.795,-83979.09,11551.23,0.0,0.0,0.0,0.0,5
-76406.13,-26903.565,-84027.06,11543.355,0.0,0.0,0.0,0.0,5
-76399.02,-26902.44,-84039.525,11549.205,0.0,0.0,0.0,0.0,5
-76350.24,-26896.32,-84081.87,11494.395,0.0,0.0,0.0,0.0,5
-76329.9,-26892.81,-84130.38,11477.745,0.0,0.0,0.0,0.0,5
-76339.395,-26897.625,-84224.88,11456.775,0.0,0.0,0.0,0.0,5
-76366.17,-26900.73,-84259.665,11444.085,0.0,0.0,0.0,0.0,5
-76426.425,-26903.475,-84172.68,11498.67,0.0,0.0,0.0,0.0,5
-76351.14,-26896.185,-83884.14,11550.645,0.0,0.0,0.0,0.0,5
-76382.73,-26901.495,-83945.34,11550.06,0.0,0.0,0.0,0.0,5
-76381.245,-26904.195,-84031.515,11548.89,0.0,0.0,0.0,0.0,5
-76354.245,-26905.68,-84039.615,11571.345,0.0,0.0,0.0,0.0,5
-76389.075,-26904.42,-83979.855,11558.385,0.0,0.0,0.0,0.0,5
-76394.925,-26897.94,-84003.705,11527.335,0.0,0.0,0.0,0.0,5
-76340.43,-26893.44,-83963.07,11541.465,0.0,0.0,0.0,0.0,5
-76325.94,-26899.47,-84001.365,11543.31,0.0,0.0,0.0,0.0,5
-76360.185,-26904.42,-84056.985,11525.265,0.0,0.0,0.0,0.0,5
-76328.1,-26904.06,-84049.155,11529.72,0.0,0.0,0.0,0.0,5
-76256.73,-26899.155,-83963.16,11557.485,0.0,0.0,0.0,0.0,5
-76295.88,-26902.305,-83993.535,11546.01,0.0,0.0,0.0,0.0,5
-76397.895,-26907.975,-84074.58,11542.05,0.0,0.0,0.0,0.0,5
-76362.975,-26908.875,-84171.375,11494.575,0.0,0.0,0.0,0.0,5
-76373.64,-26909.595,-84222.45,11485.485,0.0,0.0,0.0,0.0,5
-76438.395,-26906.715,-84150.54,11513.61,0.0,0.0,0.0,0.0,5
-76468.455,-26899.38,-84054.645,11535.84,0.0,0.0,0.0,0.0,5
-76338.72,-26887.77,-83791.44,11633.22,0.0,0.0,0.0,0.0,5
-76315.59,-26891.73,-83893.545,11605.41,0.0,0.0,0.0,0.0,5
-76272.345,-26897.445,-84013.56,11551.005,0.0,0.0,0.0,0.0,5
-76373.37,-26907.03,-84184.47,11492.19,0.0,0.0,0.0,0.0,5
-76430.34,-26915.265,-84266.91,11424.465,0.0,0.0,0.0,0.0,5
-76340.79,-26907.75,-84052.035,11488.86,0.0,0.0,0.0,0.0,5
-76339.08,-26903.655,-83874.105,11587.32,0.0,0.0,0.0,0.0,5
-76345.245,-26906.49,-83919.465,11598.255,0.0,0.0,0.0,0.0,5
-76390.065,-26911.62,-84066.84,11558.79,0.0,0.0,0.0,0.0,5
-76384.89,-26917.83,-84245.67,11473.065,0.0,0.0,0.0,0.0,5
-76362.03,-26920.665,-84227.22,11458.62,0.0,0.0,0.0,0.0,5
-76344.03,-26912.43,-83979.405,11589.48,0.0,0.0,0.0,0.0,5
-76327.83,-26910.405,-83878.335,11620.125,0.0,0.0,0.0,0.0,5
-76321.755,-26911.08,-83857.545,11616.795,0.0,0.0,0.0,0.0,5
-76327.335,-26918.82,-83963.07,11575.89,0.0,0.0,0.0,0.0,5
-76387.905,-26927.19,-84139.605,11506.905,0.0,0.0,0.0,0.0,5
-76392.405,-26930.745,-84172.905,11459.295,0.0,0.0,0.0,0.0,5
-76327.74,-26920.26,-83911.59,11582.235,0.0,0.0,0.0,0.0,5
-76294.215,-26914.77,-83836.35,11627.415,0.0,0.0,0.0,0.0,5
-76326.03,-26918.91,-84014.82,11546.325,0.0,0.0,0.0,0.0,5
-76400.64,-26927.505,-84178.665,11512.215,0.0,0.0,0.0,0.0,5
-76483.845,-26932.365,-84228.12,11513.655,0.0,0.0,0.0,0.0,5
-76356.135,-26925.21,-83997.765,11552.58,0.0,0.0,0.0,0.0,5
-76323.915,-26917.785,-83728.98,11688.435,0.0,0.0,0.0,0.0,5
-76359.285,-26924.895,-83885.445,11671.515,0.0,0.0,0.0,0.0,5
-76304.565,-26926.92,-83975.445,11597.895,0.0,0.0,0.0,0.0,5
-76290.75,-26929.62,-84010.905,11556.405,0.0,0.0,0.0,0.0,5
-76331.7,-26933.265,-84074.895,11543.445,0.0,0.0,0.0,0.0,5
-76356.855,-26929.44,-84086.46,11526.93,0.0,0.0,0.0,0.0,5
-76390.38,-26925.93,-84035.88,11546.145,0.0,0.0,0.0,0.0,5
-76379.625,-26927.505,-83998.305,11553.57,0.0,0.0,0.0,0.0,5
-76354.02,-26926.47,-83991.555,11569.545,0.0,0.0,0.0,0.0,5
-76356.315,-26930.925,-84074.04,11544.345,0.0,0.0,0.0,0.0,5
-76364.415,-26938.935,-84257.145,11473.155,0.0,0.0,0.0,0.0,5
-76353.255,-26941.68,-84269.295,11485.98,0.0,0.0,0.0,0.0,5
-76297.23,-26930.88,-83933.37,11576.475,0.0,0.0,0.0,0.0,5
-76360.995,-26928.405,-83767.86,11667.825,0.0,0.0,0.0,0.0,5
-76385.295,-26932.455,-83948.22,11586.33,0.0,0.0,0.0,0.0,5
-76337.91,-26927.955,-83946.465,11581.515,0.0,0.0,0.0,0.0,5
-76334.49,-26927.595,-84030.84,11563.605,0.0,0.0,0.0,0.0,5
-76335.3,-26928.135,-84011.805,11595.825,0.0,0.0,0.0,0.0,5
-76396.365,-26932.32,-83952.9,11625.66,0.0,0.0,0.0,0.0,5
-76396.14,-26942.22,-84132.135,11560.77,0.0,0.0,0.0,0.0,5
-76371.39,-26948.25,-84300.39,11459.835,0.0,0.0,0.0,0.0,5
-76354.605,-26946.18,-84154.095,11488.095,0.0,0.0,0.0,0.0,5
