CH1,CH2,CH3,CH4,CH5,CH6,CH7,CH8,Target
-14808.015,88381.62,-22296.42,-29677.095,0.0,0.0,0.0,0.0,4
-14806.395,88376.445,-22283.19,-29668.41,0.0,0.0,0.0,0.0,4
-14776.605,88377.705,-22224.15,-29652.12,0.0,0.0,0.0,0.0,4
-14754.24,88384.23,-22184.055,-29636.325,0.0,0.0,0.0,0.0,4
-14757.03,88385.985,-22217.895,-29647.755,0.0,0.0,0.0,0.0,4
-14772.69,88385.535,-22233.195,-29650.14,0.0,0.0,0.0,0.0,4
-14776.38,88385.715,-22244.265,-29654.955,0.0,0.0,0.0,0.0,4
-14787.54,88381.26,-22271.715,-29666.52,0.0,0.0,0.0,0.0,4
-14808.015,88381.755,-22290.21,-29675.925,0.0,0.0,0.0,0.0,4
-14798.295,88390.035,-22275.855,-29684.025,0.0,0.0,0.0,0.0,4
-14801.535,88389.72,-22280.445,-29701.485,0.0,0.0,0.0,0.0,4
-14812.965,88381.125,-22298.355,-29700.99,0.0,0.0,0.0,0.0,4
-14801.355,88377.795,-22269.42,-29683.08,0.0,0.0,0.0,0.0,4
-14756.265,88384.455,-22200.75,-29649.6,0.0,0.0,0.0,0.0,4
-14746.365,88386.84,-22221.765,-29664.0,0.0,0.0,0.0,0.0,4
-14757.84,88388.1,-22238.55,-29688.66,0.0,0.0,0.0,0.0,4
-14737.005,88392.465,-22206.69,-29670.12,0.0,0.0,0.0,0.0,4
-14749.74,88397.82,-22227.615,-29657.79,0.0,0.0,0.0,0.0,4
-14777.595,88400.025,-22264.2,-29679.975,0.0,0.0,0.0,0.0,4
-14771.475,88400.34,-22245.165,-29662.245,0.0,0.0,0.0,0.0,4
-14761.395,88395.795,-22230.99,-29665.98,0.0,0.0,0.0,0.0,4
-14765.58,88390.485,-22247.145,-29669.445,0.0,0.0,0.0,0.0,4
-14767.785,88389.81,-22238.64,-29663.28,0.0,0.0,0.0,0.0,4
-14770.53,88394.535,-22221.675,-29652.93,0.0,0.0,0.0,0.0,4
-14783.22,88396.65,-22251.195,-29674.26,0.0,0.0,0.0,0.0,4
-14794.605,88397.64,-22265.145,-29675.43,0.0,0.0,0.0,0.0,4
-14786.1,88399.62,-22250.34,-29668.995,0.0,0.0,0.0,0.0,4
-14777.415,88399.395,-22230.18,-29656.575,0.0,0.0,0.0,0.0,4
-14777.73,88400.205,-22230.54,-29643.93,0.0,0.0,0.0,0.0,4
-14779.215,88403.13,-22243.68,-29659.545,0.0,0.0,0.0,0.0,4
-14785.92,88401.87,-22249.53,-29660.715,0.0,0.0,0.0,0.0,4
-14786.595,88401.51,-22266.63,-29673.855,0.0,0.0,0.0,0.0,4
-14782.365,88399.53,-22270.815,-29682.945,0.0,0.0,0.0,0.0,4
-14775.48,88399.89,-22253.355,-29679.615,0.0,0.0,0.0,0.0,4
-14772.105,88401.87,-22242.555,-29672.145,0.0,0.0,0.0,0.0,4
-14778.315,88401.195,-22232.745,-29665.17,0.0,0.0,0.0,0.0,4
-14791.815,88399.395,-22255.695,-29674.035,0.0,0.0,0.0,0.0,4
-14807.16,88400.025,-22270.275,-29676.105,0.0,0.0,0.0,0.0,4
-14799.42,88399.98,-22266.9,-29679.345,0.0,0.0,0.0,0.0,4
-14779.62,88396.875,-22239.045,-29672.145,0.0,0.0,0.0,0.0,4
-14774.085,88391.97,-22233.825,-29669.22,0.0,0.0,0.0,0.0,4
-14783.67,88388.19,-22245.12,-29675.565,0.0,0.0,0.0,0.0,4
-14788.44,88386.12,-22251.195,-29674.755,0.0,0.0,0.0,0.0,4
-14771.565,88383.735,-22247.28,-29675.655,0.0,0.0,0.0,0.0,4
-14763.555,88383.015,-22247.64,-29680.65,0.0,0.0,0.0,0.0,4
-14759.37,88384.95,-22231.755,-29669.085,0.0,0.0,0.0,0.0,4
-14737.59,88387.425,-22209.075,-29655.045,0.0,0.0,0.0,0.0,4
-14744.7,88386.705,-22218.165,-29655.63,0.0,0.0,0.0,0.0,4
-14749.155,88390.755,-22225.365,-29661.21,0.0,0.0,0.0,0.0,4
-14769.315,88396.47,-22242.51,-29672.955,0.0,0.0,0.0,0.0,4
-14787.945,88397.55,-22255.74,-29676.24,0.0,0.0,0.0,0.0,4
-14796.495,88392.33,-22269.96,-29689.245,0.0,0.0,0.0,0.0,4
-14789.88,88388.91,-22267.665,-29692.17,0.0,0.0,0.0,0.0,4
-14793.345,88388.505,-22266.72,-29683.215,0.0,0.0,0.0,0.0,4
-14780.16,88388.145,-22247.865,-29674.215,0.0,0.0,0.0,0.0,4
-14779.44,88389.0,-22257.405,-29686.59,0.0,0.0,0.0,0.0,4
-14777.37,88389.495,-22253.67,-29687.715,0.0,0.0,0.0,0.0,4
-14789.43,88392.915,-22255.695,-29682.27,0.0,0.0,0.0,0.0,4
-14781.78,88400.205,-22247.01,-29677.23,0.0,0.0,0.0,0.0,4
-14759.865,88398.225,-22238.595,-29675.205,0.0,0.0,0.0,0.0,4
-14749.65,88392.105,-22236.165,-29673.27,0.0,0.0,0.0,0.0,4
-14751.72,88387.83,-22235.49,-29671.785,0.0,0.0,0.0,0.0,4
-14756.625,88387.65,-22242.24,-29679.435,0.0,0.0,0.0,0.0,4
-14765.04,88390.44,-22246.065,-29678.58,0.0,0.0,0.0,0.0,4
-14762.79,88391.565,-22252.095,-29685.78,0.0,0.0,0.0,0.0,4
-14779.575,88390.395,-22257.63,-29685.87,0.0,0.0,0.0,0.0,4
-14800.41,88392.375,-22264.965,-29689.515,0.0,0.0,0.0,0.0,4
-14774.445,88393.68,-22234.635,-29679.03,0.0,0.0,0.0,0.0,4
-14732.955,88393.545,-22223.79,-29678.04,0.0,0.0,0.0,0.0,4
-14730.21,88390.305,-22229.82,-29683.395,0.0,0.0,0.0,0.0,4
-14748.615,88388.505,-22239.855,-29685.78,0.0,0.0,0.0,0.0,4
-14771.475,88390.935,-22240.62,-29676.42,0.0,0.0,0.0,0.0,4
-14783.22,88393.905,-22258.44,-29680.695,0.0,0.0,0.0,0.0,4
-14803.155,88396.245,-22281.39,-29686.005,0.0,0.0,0.0,0.0,4
-14802.39,88397.01,-22269.33,-29681.595,0.0,0.0,0.0,0.0,4
-14783.94,88394.31,-22246.74,-29675.07,0.0,0.0,0.0,0.0,4
-14795.55,88389.765,-22259.16,-29680.425,0.0,0.0,0.0,0.0,4
-14780.43,88387.245,-22238.415,-29677.59,0.0,0.0,0.0,0.0,4
-14730.345,88388.055,-22194.405,-29659.59,0.0,0.0,0.0,0.0,4
-14727.6,88383.6,-22206.06,-29666.52,0.0,0.0,0.0,0.0,4
-14753.07,88376.445,-22233.69,-29674.08,0.0,0.0,0.0,0.0,4
-14776.695,88372.395,-22264.47,-29693.475,0.0,0.0,0.0,0.0,4
-14795.28,88373.52,-22260.42,-29685.6,0.0,0.0,0.0,0.0,4
-14776.47,88377.255,-22216.68,-29662.56,0.0,0.0,0.0,0.0,4
-14738.895,88378.11,-22196.43,-29658.51,0.0,0.0,0.0,0.0,4
-14748.84,88377.12,-22208.31,-29655.135,0.0,0.0,0.0,0.0,4
-14761.035,88375.185,-22221.945,-29655.45,0.0,0.0,0.0,0.0,4
-14747.895,88374.825,-22222.395,-29661.84,0.0,0.0,0.0,0.0,4
-14752.62,88374.42,-22244.895,-29695.095,0.0,0.0,0.0,0.0,4
-14771.115,88375.995,-22261.77,-29703.915,0.0,0.0,0.0,0.0,4
-14788.53,88374.465,-22275.765,-29706.255,0.0,0.0,0.0,0.0,4
-14799.78,88369.875,-22280.895,-29702.565,0.0,0.0,0.0,0.0,4
-14801.31,88368.255,-22265.055,-29685.96,0.0,0.0,0.0,0.0,4
-14808.105,88367.445,-22265.775,-29682.315,0.0,0.0,0.0,0.0,4
-14788.08,88367.4,-22253.76,-29686.905,0.0,0.0,0.0,0.0,4
-14742.99,88365.87,-22231.17,-29685.42,0.0,0.0,0.0,0.0,4
-14744.295,88367.445,-22225.68,-29678.04,0.0,0.0,0.0,0.0,4
-14759.145,88375.23,-22232.385,-29674.71,0.0,0.0,0.0,0.0,4
-14759.19,88378.605,-22239.27,-29681.505,0.0,0.0,0.0,0.0,4
-14758.425,88376.49,-22234.005,-29674.755,0.0,0.0,0.0,0.0,4
-14758.83,88371.765,-22226.67,-29664.54,0.0,0.0,0.0,0.0,4
-14760.45,88368.03,-22227.21,-29666.295,0.0,0.0,0.0,0.0,4
-14757.93,88366.725,-22229.73,-29666.16,0.0,0.0,0.0,0.0,4
-14777.055,88363.08,-22269.465,-29698.515,0.0,0.0,0.0,0.0,4
-14810.58,88361.145,-22277.07,-29692.08,0.0,0.0,0.0,0.0,4
-14817.195,88363.485,-22262.04,-29676.555,0.0,0.0,0.0,0.0,4
-14766.75,88367.265,-22226.4,-29663.37,0.0,0.0,0.0,0.0,4
-14734.44,88364.835,-22200.615,-29649.42,0.0,0.0,0.0,0.0,4
-14734.755,88362.135,-22199.445,-29639.745,0.0,0.0,0.0,0.0,4
-14755.05,88361.91,-22214.88,-29651.805,0.0,0.0,0.0,0.0,4
-14789.205,88359.21,-22256.865,-29690.64,0.0,0.0,0.0,0.0,4
-14790.42,88356.42,-22257.765,-29694.42,0.0,0.0,0.0,0.0,4
-14763.015,88357.995,-22226.31,-29661.795,0.0,0.0,0.0,0.0,4
-14772.78,88359.435,-22218.345,-29632.86,0.0,0.0,0.0,0.0,4
-14777.865,88358.76,-22219.245,-29640.915,0.0,0.0,0.0,0.0,4
-14729.175,88360.02,-22192.155,-29641.455,0.0,0.0,0.0,0.0,4
-14732.28,88354.98,-22217.94,-29668.14,0.0,0.0,0.0,0.0,4
-14778.99,88349.58,-22251.87,-29686.905,0.0,0.0,0.0,0.0,4
-14797.845,88351.65,-22269.465,-29697.345,0.0,0.0,0.0,0.0,4
-14786.505,88352.055,-22239.45,-29663.955,0.0,0.0,0.0,0.0,4
-14779.44,88347.51,-22222.8,-29635.965,0.0,0.0,0.0,0.0,4
-14810.04,88341.57,-22265.91,-29666.295,0.0,0.0,0.0,0.0,4
-14806.08,88336.71,-22276.665,-29691.405,0.0,0.0,0.0,0.0,4
-14776.56,88331.895,-22268.925,-29714.67,0.0,0.0,0.0,0.0,4
-14779.665,88329.555,-22260.87,-29690.37,0.0,0.0,0.0,0.0,4
-14799.015,88332.345,-22246.2,-29666.61,0.0,0.0,0.0,0.0,4
-14775.21,88336.845,-22225.23,-29666.34,0.0,0.0,0.0,0.0,4
-14766.57,88341.12,-22226.49,-29683.8,0.0,0.0,0.0,0.0,4
-14728.86,88346.34,-22213.08,-29677.815,0.0,0.0,0.0,0.0,4
-14747.13,88345.575,-22248.855,-29680.335,0.0,0.0,0.0,0.0,4
-14841.09,88337.52,-22322.88,-29702.925,0.0,0.0,0.0,0.0,4
-14879.97,88331.13,-22319.415,-29697.705,0.0,0.0,0.0,0.0,4
-14812.695,88333.695,-22236.615,-29688.84,0.0,0.0,0.0,0.0,4
-14783.265,88336.935,-22246.065,-29698.245,0.0,0.0,0.0,0.0,4
-14804.505,88339.545,-22279.995,-29705.4,0.0,0.0,0.0,0.0,4
-14761.17,88340.85,-22254.03,-29687.58,0.0,0.0,0.0,0.0,4
-14839.065,88338.69,-22293.585,-29678.445,0.0,0.0,0.0,0.0,4
-14848.065,88339.545,-22274.37,-29669.94,0.0,0.0,0.0,0.0,4
-14726.655,88347.555,-22176.63,-29652.75,0.0,0.0,0.0,0.0,4
-14589.27,88353.945,-22098.42,-29639.34,0.0,0.0,0.0,0.0,4
-14653.035,88346.88,-22145.94,-29646.54,0.0,0.0,0.0,0.0,4
-14725.62,88339.32,-22192.92,-29644.875,0.0,0.0,0.0,0.0,4
-14773.05,88339.995,-22224.78,-29640.825,0.0,0.0,0.0,0.0,4
-14856.615,88340.31,-22327.065,-29707.155,0.0,0.0,0.0,0.0,4
-14852.34,88342.56,-22329.99,-29715.885,0.0,0.0,0.0,0.0,4
-14745.69,88346.385,-22219.155,-29687.985,0.0,0.0,0.0,0.0,4
-14703.795,88344.72,-22201.695,-29683.125,0.0,0.0,0.0,0.0,4
-14738.67,88338.555,-22232.655,-29657.07,0.0,0.0,0.0,0.0,4
-14793.12,88332.435,-22247.505,-29647.89,0.0,0.0,0.0,0.0,4
-14748.345,88332.255,-22204.62,-29655.855,0.0,0.0,0.0,0.0,4
-14733.27,88330.545,-22184.235,-29638.305,0.0,0.0,0.0,0.0,4
-14732.865,88328.115,-22228.965,-29664.54,0.0,0.0,0.0,0.0,4
-14782.995,88322.22,-22279.23,-29698.02,0.0,0.0,0.0,0.0,4
-14851.71,88318.17,-22308.255,-29701.62,0.0,0.0,0.0,0.0,4
-14861.385,88319.43,-22324.59,-29701.845,0.0,0.0,0.0,0.0,4
-14760.945,88321.815,-22257.315,-29704.095,0.0,0.0,0.0,0.0,4
-14725.71,88321.545,-22232.88,-29696.355,0.0,0.0,0.0,0.0,4
-14802.705,88317.18,-22261.995,-29695.68,0.0,0.0,0.0,0.0,4
-14771.655,88316.505,-22229.325,-29701.62,0.0,0.0,0.0,0.0,4
-14784.795,88314.12,-22250.745,-29707.245,0.0,0.0,0.0,0.0,4
-14806.035,88313.805,-22264.38,-29710.44,0.0,0.0,0.0,0.0,4
-14758.92,88313.535,-22212.72,-29680.335,0.0,0.0,0.0,0.0,4
-14724.54,88314.93,-22176.405,-29646.27,0.0,0.0,0.0,0.0,4
-14764.41,88317.9,-22249.8,-29657.16,0.0,0.0,0.0,0.0,4
-14872.905,88316.595,-22356.81,-29677.995,0.0,0.0,0.0,0.0,4
-14981.4,88318.215,-22390.245,-29690.37,0.0,0.0,0.0,0.0,4
-14922.27,88326.09,-22297.5,-29699.505,0.0,0.0,0.0,0.0,4
-14659.47,88337.205,-22116.87,-29667.555,0.0,0.0,0.0,0.0,4
-14613.48,88332.21,-22172.49,-29699.235,0.0,0.0,0.0,0.0,4
-14732.955,88322.76,-22283.865,-29720.79,0.0,0.0,0.0,0.0,4
-14784.615,88318.08,-22285.935,-29693.88,0.0,0.0,0.0,0.0,4
-14784.03,88315.785,-22269.69,-29698.83,0.0,0.0,0.0,0.0,4
-14762.16,88316.01,-22242.24,-29692.89,0.0,0.0,0.0,0.0,4
-14725.98,88319.34,-22206.735,-29666.115,0.0,0.0,0.0,0.0,4
-14695.155,88323.885,-22193.775,-29650.545,0.0,0.0,0.0,0.0,4
-14791.995,88322.22,-22267.845,-29671.155,0.0,0.0,0.0,0.0,4
-14871.24,88322.535,-22296.42,-29683.53,0.0,0.0,0.0,0.0,4
-14824.98,88324.425,-22237.155,-29676.42,0.0,0.0,0.0,0.0,4
-14747.49,88322.76,-22249.89,-29715.615,0.0,0.0,0.0,0.0,4
-14743.485,88319.835,-22276.62,-29734.965,0.0,0.0,0.0,0.0,4
-14741.955,88316.73,-22254.705,-29722.77,0.0,0.0,0.0,0.0,4
-14735.385,88316.82,-22221.945,-29672.46,0.0,0.0,0.0,0.0,4
-14755.005,88316.28,-22239.27,-29650.86,0.0,0.0,0.0,0.0,4
-14842.62,88311.105,-22306.905,-29704.815,0.0,0.0,0.0,0.0,4
-14817.555,88313.67,-22270.05,-29718.675,0.0,0.0,0.0,0.0,4
-14697.18,88319.295,-22206.06,-29699.865,0.0,0.0,0.0,0.0,4
-14680.485,88320.33,-22196.52,-29674.08,0.0,0.0,0.0,0.0,4
-14744.79,88311.51,-22231.89,-29675.79,0.0,0.0,0.0,0.0,4
-14760.855,88305.21,-22267.08,-29706.84,0.0,0.0,0.0,0.0,4
-14757.93,88307.505,-22265.46,-29720.34,0.0,0.0,0.0,0.0,4
-14757.75,88308.72,-22272.705,-29734.47,0.0,0.0,0.0,0.0,4
-14815.845,88303.32,-22309.74,-29708.37,0.0,0.0,0.0,0.0,4
-14899.995,88296.345,-22340.565,-29676.645,0.0,0.0,0.0,0.0,4
-14788.08,88294.41,-22207.275,-29632.995,0.0,0.0,0.0,0.0,4
-14686.83,88293.825,-22161.825,-29661.03,0.0,0.0,0.0,0.0,4
-14642.91,88293.195,-22188.915,-29700.045,0.0,0.0,0.0,0.0,4
-14659.335,88299.135,-22167.54,-29637.36,0.0,0.0,0.0,0.0,4
-14753.565,88298.595,-22228.515,-29638.035,0.0,0.0,0.0,0.0,4
-14899.23,88293.24,-22335.03,-29682.72,0.0,0.0,0.0,0.0,4
-14881.905,88290.9,-22304.115,-29680.38,0.0,0.0,0.0,0.0,4
-14679.27,88297.605,-22163.4,-29669.4,0.0,0.0,0.0,0.0,4
-14683.185,88292.16,-22248.765,-29727.405,0.0,0.0,0.0,0.0,4
-14732.955,88291.845,-22286.88,-29737.17,0.0,0.0,0.0,0.0,4
-14707.17,88293.06,-22229.37,-29686.095,0.0,0.0,0.0,0.0,4
-14751.27,88288.83,-22274.595,-29717.82,0.0,0.0,0.0,0.0,4
-14736.33,88289.145,-22263.165,-29733.48,0.0,0.0,0.0,0.0,4
-14741.28,88290.675,-22260.69,-29730.51,0.0,0.0,0.0,0.0,4
-14747.94,88292.205,-22263.255,-29736.315,0.0,0.0,0.0,0.0,4
-14757.84,88292.97,-22267.08,-29719.08,0.0,0.0,0.0,0.0,4
-14836.635,88290.405,-22330.485,-29728.98,0.0,0.0,0.0,0.0,4
-14924.385,88289.73,-22362.93,-29707.47,0.0,0.0,0.0,0.0,4
-14824.71,88295.445,-22276.98,-29695.32,0.0,0.0,0.0,0.0,4
-14707.845,88301.61,-22210.605,-29692.485,0.0,0.0,0.0,0.0,4
-14702.895,88296.93,-22194.81,-29666.295,0.0,0.0,0.0,0.0,4
-14676.39,88294.59,-22190.67,-29679.48,0.0,0.0,0.0,0.0,4
-14711.085,88290.585,-22260.375,-29717.82,0.0,0.0,0.0,0.0,4
-14771.205,88289.415,-22305.06,-29747.475,0.0,0.0,0.0,0.0,4
-14791.995,88292.07,-22302.945,-29730.645,0.0,0.0,0.0,0.0,4
-14862.87,88292.79,-22328.055,-29731.59,0.0,0.0,0.0,0.0,4
-14794.785,88301.295,-22269.6,-29713.23,0.0,0.0,0.0,0.0,4
-14706.45,88312.23,-22203.315,-29681.145,0.0,0.0,0.0,0.0,4
-14708.655,88309.755,-22198.68,-29671.74,0.0,0.0,0.0,0.0,4
-14669.82,88305.03,-22192.155,-29680.155,0.0,0.0,0.0,0.0,4
-14720.625,88300.8,-22244.625,-29705.535,0.0,0.0,0.0,0.0,4
-14723.055,88301.295,-22249.35,-29689.065,0.0,0.0,0.0,0.0,4
-14764.005,88304.94,-22247.73,-29667.96,0.0,0.0,0.0,0.0,4
-14785.56,88308.81,-22242.42,-29655.045,0.0,0.0,0.0,0.0,4
-14767.38,88312.86,-22221.0,-29660.625,0.0,0.0,0.0,0.0,4
-14760.045,88313.22,-22250.97,-29705.175,0.0,0.0,0.0,0.0,4
-14755.185,88313.49,-22278.645,-29726.01,0.0,0.0,0.0,0.0,4
-14818.32,88308.675,-22326.84,-29745.945,0.0,0.0,0.0,0.0,4
-14863.32,88304.265,-22346.595,-29750.85,0.0,0.0,0.0,0.0,4
-14819.94,88301.835,-22299.075,-29725.515,0.0,0.0,0.0,0.0,4
-14697.9,88304.85,-22203.225,-29688.435,0.0,0.0,0.0,0.0,4
-14682.6,88299.54,-22196.565,-29686.32,0.0,0.0,0.0,0.0,4
-14706.405,88300.935,-22214.475,-29682.18,0.0,0.0,0.0,0.0,4
-14711.4,88306.155,-22228.56,-29695.635,0.0,0.0,0.0,0.0,4
-14738.94,88305.93,-22264.245,-29724.795,0.0,0.0,0.0,0.0,4
-14786.865,88303.95,-22322.655,-29749.41,0.0,0.0,0.0,0.0,4
-14843.43,88300.935,-22345.155,-29732.355,0.0,0.0,0.0,0.0,4
-14852.07,88298.235,-22310.64,-29705.535,0.0,0.0,0.0,0.0,4
-14789.745,88296.3,-22238.955,-29668.995,0.0,0.0,0.0,0.0,4
-14668.245,88301.61,-22150.44,-29666.88,0.0,0.0,0.0,0.0,4
-14614.155,88307.82,-22161.69,-29677.995,0.0,0.0,0.0,0.0,4
-14746.77,88303.005,-22299.75,-29709.81,0.0,0.0,0.0,0.0,4
-14836.59,88303.275,-22332.735,-29736.18,0.0,0.0,0.0,0.0,4
-14718.6,88313.805,-22193.865,-29709.54,0.0,0.0,0.0,0.0,4
-14655.33,88318.305,-22156.245,-29667.42,0.0,0.0,0.0,0.0,4
-14688.765,88316.685,-22218.165,-29678.355,0.0,0.0,0.0,0.0,4
-14735.115,88313.76,-22265.19,-29703.6,0.0,0.0,0.0,0.0,4
-14753.61,88311.015,-22248.09,-29684.205,0.0,0.0,0.0,0.0,4
-14696.64,88310.07,-22184.595,-29657.205,0.0,0.0,0.0,0.0,4
-14720.535,88307.505,-22251.825,-29692.98,0.0,0.0,0.0,0.0,4
-14767.515,88305.435,-22287.105,-29725.965,0.0,0.0,0.0,0.0,4
-14777.82,88305.57,-22292.775,-29728.395,0.0,0.0,0.0,0.0,4
-14867.865,88301.295,-22352.175,-29731.365,0.0,0.0,0.0,0.0,4
-14856.615,88305.93,-22281.795,-29693.34,0.0,0.0,0.0,0.0,4
-14682.645,88315.29,-22184.82,-29691.27,0.0,0.0,0.0,0.0,4
-14668.515,88314.93,-22223.25,-29729.475,0.0,0.0,0.0,0.0,4
-14666.67,88315.65,-22201.155,-29709.09,0.0,0.0,0.0,0.0,4
-14644.44,88317.63,-22166.505,-29672.775,0.0,0.0,0.0,0.0,4
-14682.015,88321.185,-22206.87,-29679.75,0.0,0.0,0.0,0.0,4
-14727.6,88322.31,-22260.375,-29701.17,0.0,0.0,0.0,0.0,4
-14800.68,88318.71,-22301.415,-29714.85,0.0,0.0,0.0,0.0,4
-14899.68,88313.58,-22346.64,-29729.16,0.0,0.0,0.0,0.0,4
-14852.115,88313.715,-22306.05,-29720.655,0.0,0.0,0.0,0.0,4
-14706.54,88318.53,-22216.05,-29728.395,0.0,0.0,0.0,0.0,4
-14619.15,88322.94,-22137.48,-29716.29,0.0,0.0,0.0,0.0,4
-14644.17,88319.475,-22204.035,-29716.83,0.0,0.0,0.0,0.0,4
-14702.985,88314.435,-22250.385,-29718.855,0.0,0.0,0.0,0.0,4
-14720.715,88309.845,-22249.395,-29697.885,0.0,0.0,0.0,0.0,4
-14735.205,88307.55,-22259.835,-29707.875,0.0,0.0,0.0,0.0,4
-14748.525,88308.405,-22252.14,-29685.105,0.0,0.0,0.0,0.0,4
-14787.72,88305.12,-22284.045,-29706.255,0.0,0.0,0.0,0.0,4
-14790.69,88305.21,-22281.615,-29718.27,0.0,0.0,0.0,0.0,4
-14864.67,88307.955,-22347.945,-29739.06,0.0,0.0,0.0,0.0,4
-14836.275,88317.855,-22298.985,-29710.35,0.0,0.0,0.0,0.0,4
-14713.83,88330.455,-22211.64,-29696.76,0.0,0.0,0.0,0.0,4
-14676.3,88333.065,-22171.905,-29696.175,0.0,0.0,0.0,0.0,4
-14639.94,88328.745,-22182.795,-29688.84,0.0,0.0,0.0,0.0,4
-14672.565,88321.005,-22229.055,-29705.895,0.0,0.0,0.0,0.0,4
-14706.99,88318.08,-22246.38,-29734.38,0.0,0.0,0.0,0.0,4
-14706.765,88314.345,-22251.105,-29724.615,0.0,0.0,0.0,0.0,4
-14687.865,88311.555,-22224.825,-29694.915,0.0,0.0,0.0,0.0,4
-14727.78,88311.465,-22211.64,-29658.33,0.0,0.0,0.0,0.0,4
-14856.84,88306.47,-22346.955,-29694.42,0.0,0.0,0.0,0.0,4
-14909.085,88304.895,-22382.64,-29729.61,0.0,0.0,0.0,0.0,4
-14719.365,88319.97,-22159.62,-29684.34,0.0,0.0,0.0,0.0,4
-14638.365,88327.845,-22117.32,-29648.88,0.0,0.0,0.0,0.0,4
-14659.515,88326.18,-22161.78,-29656.89,0.0,0.0,0.0,0.0,4
-14682.105,88324.02,-22184.19,-29656.215,0.0,0.0,0.0,0.0,4
-14685.93,88324.605,-22190.76,-29680.515,0.0,0.0,0.0,0.0,4
-14670.81,88323.795,-22202.865,-29697.39,0.0,0.0,0.0,0.0,4
-14675.715,88319.205,-22240.44,-29734.605,0.0,0.0,0.0,0.0,4
-14726.07,88313.4,-22276.8,-29744.685,0.0,0.0,0.0,0.0,4
-14763.375,88311.33,-22288.905,-29743.335,0.0,0.0,0.0,0.0,4
-14782.365,88314.705,-22311.72,-29748.465,0.0,0.0,0.0,0.0,4
-14832.36,88316.775,-22377.15,-29770.29,0.0,0.0,0.0,0.0,4
-14844.33,88319.43,-22350.33,-29747.025,0.0,0.0,0.0,0.0,4
-14784.345,88325.685,-22264.38,-29704.59,0.0,0.0,0.0,0.0,4
-14734.35,88324.74,-22244.535,-29709.18,0.0,0.0,0.0,0.0,4
-14673.78,88325.055,-22157.595,-29673.765,0.0,0.0,0.0,0.0,4
-14689.71,88319.16,-22217.67,-29704.68,0.0,0.0,0.0,0.0,4
-14729.49,88313.4,-22285.845,-29726.775,0.0,0.0,0.0,0.0,4
-14802.525,88310.115,-22293.72,-29705.49,0.0,0.0,0.0,0.0,4
-14870.97,88309.98,-22317.84,-29717.415,0.0,0.0,0.0,0.0,4
-14781.735,88319.88,-22240.485,-29716.83,0.0,0.0,0.0,0.0,4
-14579.28,88337.61,-22108.23,-29679.975,0.0,0.0,0.0,0.0,4
-14572.935,88339.455,-22166.415,-29691.99,0.0,0.0,0.0,0.0,4
-14631.255,88339.995,-22197.87,-29691.585,0.0,0.0,0.0,0.0,4
-14681.295,88346.475,-22233.105,-29713.86,0.0,0.0,0.0,0.0,4
-14728.59,88347.51,-22243.59,-29713.275,0.0,0.0,0.0,0.0,4
-14805.855,88343.28,-22331.205,-29743.335,0.0,0.0,0.0,0.0,4
-14971.77,88337.745,-22433.94,-29749.455,0.0,0.0,0.0,0.0,4
-14828.13,88348.185,-22229.055,-29681.37,0.0,0.0,0.0,0.0,4
-14559.705,88362.135,-22093.245,-29659.59,0.0,0.0,0.0,0.0,4
-14618.52,88359.975,-22199.895,-29709.72,0.0,0.0,0.0,0.0,4
-14649.48,88364.16,-22194.54,-29699.28,0.0,0.0,0.0,0.0,4
-14711.31,88362.99,-22231.17,-29711.07,0.0,0.0,0.0,0.0,4
-14835.105,88354.71,-22300.83,-29737.845,0.0,0.0,0.0,0.0,4
-14906.565,88349.04,-22324.23,-29734.065,0.0,0.0,0.0,0.0,4
-14783.715,88355.61,-22226.76,-29690.64,0.0,0.0,0.0,0.0,4
-14628.51,88364.79,-22148.955,-29668.005,0.0,0.0,0.0,0.0,4
-14642.955,88367.94,-22225.725,-29720.52,0.0,0.0,0.0,0.0,4
-14642.91,88371.0,-22216.185,-29732.895,0.0,0.0,0.0,0.0,4
-14648.805,88376.4,-22178.295,-29680.335,0.0,0.0,0.0,0.0,4
-14724.54,88375.68,-22241.475,-29683.215,0.0,0.0,0.0,0.0,4
-14728.815,88377.885,-22256.595,-29713.05,0.0,0.0,0.0,0.0,4
-14727.555,88376.805,-22256.46,-29709.315,0.0,0.0,0.0,0.0,4
-14780.655,88370.46,-22302.09,-29739.555,0.0,0.0,0.0,0.0,4
-14714.19,88369.785,-22225.995,-29714.985,0.0,0.0,0.0,0.0,4
-14675.715,88368.21,-22194.54,-29682.405,0.0,0.0,0.0,0.0,4
-14688.09,88367.985,-22199.895,-29669.49,0.0,0.0,0.0,0.0,4
-14694.84,88367.715,-22215.24,-29664.585,0.0,0.0,0.0,0.0,4
-14718.555,88369.38,-22250.475,-29697.75,0.0,0.0,0.0,0.0,4
-14714.595,88374.96,-22239.99,-29708.595,0.0,0.0,0.0,0.0,4
-14717.61,88372.755,-22263.48,-29737.665,0.0,0.0,0.0,0.0,4
-14718.465,88371.9,-22251.825,-29730.33,0.0,0.0,0.0,0.0,4
-14701.815,88374.015,-22220.73,-29701.53,0.0,0.0,0.0,0.0,4
-14766.84,88377.075,-22286.07,-29716.02,0.0,0.0,0.0,0.0,4
-14845.635,88374.375,-22284.54,-29693.07,0.0,0.0,0.0,0.0,4
-14771.88,88374.195,-22232.52,-29703.24,0.0,0.0,0.0,0.0,4
-14726.205,88374.735,-22251.015,-29715.075,0.0,0.0,0.0,0.0,4
-14706.81,88379.595,-22228.965,-29702.43,0.0,0.0,0.0,0.0,4
-14615.685,88385.535,-22154.22,-29692.125,0.0,0.0,0.0,0.0,4
-14599.26,88382.07,-22200.165,-29729.745,0.0,0.0,0.0,0.0,4
-14647.95,88378.605,-22243.815,-29752.74,0.0,0.0,0.0,0.0,4
-14688.855,88379.82,-22243.14,-29755.215,0.0,0.0,0.0,0.0,4
-14692.365,88383.42,-22216.545,-29725.02,0.0,0.0,0.0,0.0,4
-14763.015,88382.205,-22263.075,-29703.015,0.0,0.0,0.0,0.0,4
-14856.93,88373.07,-22344.525,-29718.54,0.0,0.0,0.0,0.0,4
-14855.04,88368.48,-22320.63,-29716.38,0.0,0.0,0.0,0.0,4
-14796.0,88369.605,-22271.13,-29699.01,0.0,0.0,0.0,0.0,4
-14742.495,88370.685,-22244.895,-29712.15,0.0,0.0,0.0,0.0,4
-14634.18,88377.615,-22153.32,-29673.45,0.0,0.0,0.0,0.0,4
-14637.195,88381.35,-22181.715,-29683.395,0.0,0.0,0.0,0.0,4
-14691.465,88378.83,-22244.13,-29712.195,0.0,0.0,0.0,0.0,4
-14778.495,88371.81,-22305.555,-29742.435,0.0,0.0,0.0,0.0,4
-14774.625,88371.315,-22292.415,-29735.955,0.0,0.0,0.0,0.0,4
-14744.295,88379.19,-22234.14,-29695.05,0.0,0.0,0.0,0.0,4
-14734.845,88379.955,-22226.58,-29693.295,0.0,0.0,0.0,0.0,4
-14710.14,88380.405,-22191.615,-29678.895,0.0,0.0,0.0,0.0,4
-14636.25,88383.465,-22143.42,-29670.39,0.0,0.0,0.0,0.0,4
-14594.31,88386.84,-22193.955,-29705.985,0.0,0.0,0.0,0.0,4
-14688.99,88387.875,-22251.465,-29699.55,0.0,0.0,0.0,0.0,4
-14774.085,88387.245,-22269.735,-29697.345,0.0,0.0,0.0,0.0,4
-14716.755,88389.18,-22209.255,-29707.29,0.0,0.0,0.0,0.0,4
-14645.115,88391.79,-22201.47,-29710.53,0.0,0.0,0.0,0.0,4
-14641.245,88389.045,-22201.38,-29703.69,0.0,0.0,0.0,0.0,4
-14698.125,88386.885,-22240.17,-29714.445,0.0,0.0,0.0,0.0,4
-14798.025,88387.83,-22315.635,-29740.095,0.0,0.0,0.0,0.0,4
-14873.4,88391.295,-22346.19,-29749.725,0.0,0.0,0.0,0.0,4
-14761.935,88397.64,-22198.365,-29674.53,0.0,0.0,0.0,0.0,4
-14604.57,88398.045,-22150.665,-29671.965,0.0,0.0,0.0,0.0,4
-14618.295,88396.2,-22175.46,-29677.815,0.0,0.0,0.0,0.0,4
-14678.505,88396.425,-22211.19,-29689.38,0.0,0.0,0.0,0.0,4
-14679.945,88395.57,-22239.45,-29712.105,0.0,0.0,0.0,0.0,4
-14700.555,88394.04,-22230.54,-29697.165,0.0,0.0,0.0,0.0,4
-14725.53,88394.445,-22260.42,-29710.485,0.0,0.0,0.0,0.0,4
-14788.98,88390.845,-22299.57,-29740.5,0.0,0.0,0.0,0.0,4
-14800.365,88385.85,-22262.805,-29708.865,0.0,0.0,0.0,0.0,4
-14726.07,88383.87,-22189.815,-29688.795,0.0,0.0,0.0,0.0,4
-14683.815,88381.62,-22191.345,-29701.08,0.0,0.0,0.0,0.0,4
-14678.73,88380.045,-22184.73,-29702.565,0.0,0.0,0.0,0.0,4
-14694.75,88380.63,-22217.58,-29715.3,0.0,0.0,0.0,0.0,4
-14644.71,88384.23,-22182.48,-29687.625,0.0,0.0,0.0,0.0,4
-14628.915,88386.39,-22191.435,-29688.705,0.0,0.0,0.0,0.0,4
-14759.55,88383.285,-22292.055,-29707.155,0.0,0.0,0.0,0.0,4
-14885.775,88378.65,-22378.995,-29736.135,0.0,0.0,0.0,0.0,4
-14837.895,88380.72,-22274.235,-29715.48,0.0,0.0,0.0,0.0,4
-14689.485,88384.545,-22189.005,-29712.87,0.0,0.0,0.0,0.0,4
-14673.825,88378.875,-22236.525,-29720.205,0.0,0.0,0.0,0.0,4
-14690.43,88373.655,-22211.865,-29698.515,0.0,0.0,0.0,0.0,4
-14662.26,88372.395,-22192.065,-29718.675,0.0,0.0,0.0,0.0,4
-14605.785,88376.985,-22188.42,-29725.92,0.0,0.0,0.0,0.0,4
-14625.72,88382.745,-22192.38,-29698.065,0.0,0.0,0.0,0.0,4
-14682.69,88383.195,-22216.23,-29700.18,0.0,0.0,0.0,0.0,4
-14713.965,88379.415,-22227.255,-29691.09,0.0,0.0,0.0,0.0,4
-14766.795,88375.68,-22286.475,-29716.335,0.0,0.0,0.0,0.0,4
-14827.68,88370.955,-22305.915,-29724.795,0.0,0.0,0.0,0.0,4
-14778.045,88369.245,-22219.785,-29690.055,0.0,0.0,0.0,0.0,4
-14627.07,88373.205,-22133.52,-29695.365,0.0,0.0,0.0,0.0,4
-14607.495,88374.51,-22171.86,-29703.78,0.0,0.0,0.0,0.0,4
-14656.275,88372.485,-22231.62,-29714.58,0.0,0.0,0.0,0.0,4
-14683.365,88372.17,-22237.605,-29718.405,0.0,0.0,0.0,0.0,4
-14671.845,88376.895,-22218.84,-29697.795,0.0,0.0,0.0,0.0,4
-14720.49,88376.13,-22252.545,-29713.14,0.0,0.0,0.0,0.0,4
-14816.745,88372.665,-22316.085,-29717.46,0.0,0.0,0.0,0.0,4
-14931.63,88366.68,-22403.79,-29755.575,0.0,0.0,0.0,0.0,4
-14804.235,88373.205,-22253.67,-29732.805,0.0,0.0,0.0,0.0,4
-14598.495,88382.7,-22115.61,-29708.82,0.0,0.0,0.0,0.0,4
-14613.435,88383.195,-22149.99,-29682.225,0.0,0.0,0.0,0.0,4
-14628.645,88381.35,-22186.35,-29693.205,0.0,0.0,0.0,0.0,4
-14664.51,88378.56,-22222.98,-29710.71,0.0,0.0,0.0,0.0,4
-14658.615,88378.02,-22182.795,-29691.36,0.0,0.0,0.0,0.0,4
-14700.78,88372.35,-22212.315,-29677.32,0.0,0.0,0.0,0.0,4
-14846.04,88363.08,-22346.235,-29725.515,0.0,0.0,0.0,0.0,4
-14884.29,88363.62,-22349.385,-29726.055,0.0,0.0,0.0,0.0,4
-14695.56,88375.995,-22187.25,-29711.34,0.0,0.0,0.0,0.0,4
-14585.535,88384.68,-22124.34,-29691.09,0.0,0.0,0.0,0.0,4
-14646.015,88382.745,-22166.46,-29678.85,0.0,0.0,0.0,0.0,4
-14644.665,88381.89,-22196.115,-29699.145,0.0,0.0,0.0,0.0,4
-14662.62,88379.235,-22237.335,-29731.005,0.0,0.0,0.0,0.0,4
-14683.635,88375.815,-22242.915,-29750.31,0.0,0.0,0.0,0.0,4
-14697.945,88373.7,-22220.955,-29734.605,0.0,0.0,0.0,0.0,4
-14705.64,88370.19,-22248.225,-29734.245,0.0,0.0,0.0,0.0,4
-14755.995,88364.79,-22272.48,-29731.14,0.0,0.0,0.0,0.0,4
-14782.455,88361.055,-22278.96,-29708.955,0.0,0.0,0.0,0.0,4
-14769.72,88364.475,-22261.005,-29706.165,0.0,0.0,0.0,0.0,4
-14704.515,88371.495,-22209.84,-29711.97,0.0,0.0,0.0,0.0,4
-14676.705,88373.52,-22207.005,-29688.345,0.0,0.0,0.0,0.0,4
-14714.055,88373.97,-22199.625,-29686.545,0.0,0.0,0.0,0.0,4
-14715.495,88373.205,-22234.23,-29712.06,0.0,0.0,0.0,0.0,4
-14677.74,88372.98,-22189.995,-29726.415,0.0,0.0,0.0,0.0,4
-14628.24,88374.33,-22180.365,-29748.465,0.0,0.0,0.0,0.0,4
-14654.115,88378.245,-22205.52,-29720.52,0.0,0.0,0.0,0.0,4
-14680.215,88379.955,-22235.985,-29705.445,0.0,0.0,0.0,0.0,4
-14782.365,88377.21,-22310.73,-29713.185,0.0,0.0,0.0,0.0,4
-14937.795,88372.935,-22398.705,-29744.235,0.0,0.0,0.0,0.0,4
-14820.84,88384.815,-22254.75,-29742.3,0.0,0.0,0.0,0.0,4
-14606.37,88394.085,-22127.715,-29715.705,0.0,0.0,0.0,0.0,4
-14529.42,88393.185,-22121.55,-29700.81,0.0,0.0,0.0,0.0,4
-14578.02,88388.775,-22146.345,-29674.035,0.0,0.0,0.0,0.0,4
-14661.09,88380.495,-22214.655,-29709.675,0.0,0.0,0.0,0.0,4
-14778.18,88367.94,-22317.03,-29743.515,0.0,0.0,0.0,0.0,4
-14894.1,88356.825,-22359.6,-29732.805,0.0,0.0,0.0,0.0,4
-14821.47,88362.09,-22263.525,-29701.035,0.0,0.0,0.0,0.0,4
-14616.18,88379.145,-22111.92,-29670.48,0.0,0.0,0.0,0.0,4
-14568.84,88384.455,-22105.35,-29688.165,0.0,0.0,0.0,0.0,4
-14613.345,88379.91,-22168.17,-29707.02,0.0,0.0,0.0,0.0,4
-14653.485,88373.025,-22212.63,-29714.265,0.0,0.0,0.0,0.0,4
-14683.545,88365.15,-22210.605,-29702.61,0.0,0.0,0.0,0.0,4
-14725.62,88357.995,-22244.4,-29710.35,0.0,0.0,0.0,0.0,4
-14813.73,88350.795,-22303.35,-29713.275,0.0,0.0,0.0,0.0,4
-14857.785,88346.16,-22309.47,-29711.97,0.0,0.0,0.0,0.0,4
-14781.69,88351.155,-22235.94,-29707.515,0.0,0.0,0.0,0.0,4
-14608.17,88360.83,-22139.64,-29705.895,0.0,0.0,0.0,0.0,4
-14586.39,88361.775,-22152.69,-29702.7,0.0,0.0,0.0,0.0,4
-14636.025,88361.955,-22204.035,-29707.74,0.0,0.0,0.0,0.0,4
-14627.205,88368.795,-22165.785,-29682.27,0.0,0.0,0.0,0.0,4
-14622.84,88366.68,-22198.95,-29736.405,0.0,0.0,0.0,0.0,4
-14743.395,88356.06,-22272.3,-29753.865,0.0,0.0,0.0,0.0,4
-14758.515,88354.485,-22235.715,-29696.715,0.0,0.0,0.0,0.0,4
-14716.53,88361.415,-22196.07,-29672.1,0.0,0.0,0.0,0.0,4
-14760.945,88359.885,-22273.605,-29723.04,0.0,0.0,0.0,0.0,4
-14680.44,88362.855,-22190.94,-29710.62,0.0,0.0,0.0,0.0,4
-14644.935,88365.735,-22168.8,-29702.79,0.0,0.0,0.0,0.0,4
-14611.455,88369.92,-22163.895,-29709.63,0.0,0.0,0.0,0.0,4
-14651.82,88367.805,-22197.24,-29704.14,0.0,0.0,0.0,0.0,4
-14686.875,88363.53,-22256.28,-29738.43,0.0,0.0,0.0,0.0,4
-14775.795,88357.905,-22277.475,-29739.33,0.0,0.0,0.0,0.0,4
-14852.7,88347.825,-22292.415,-29731.725,0.0,0.0,0.0,0.0,4
-14748.165,88348.455,-22201.065,-29715.345,0.0,0.0,0.0,0.0,4
-14526.585,88360.56,-22050.09,-29653.785,0.0,0.0,0.0,0.0,4
-14542.02,88361.145,-22121.73,-29670.615,0.0,0.0,0.0,0.0,4
-14618.565,88362.63,-22182.48,-29696.31,0.0,0.0,0.0,0.0,4
-14652.72,88362.405,-22192.695,-29696.04,0.0,0.0,0.0,0.0,4
-14723.145,88356.555,-22223.385,-29685.015,0.0,0.0,0.0,0.0,4
-14733.045,88353.045,-22241.655,-29706.84,0.0,0.0,0.0,0.0,4
-14739.705,88352.685,-22242.78,-29706.03,0.0,0.0,0.0,0.0,4
-14763.375,88348.995,-22270.95,-29727.585,0.0,0.0,0.0,0.0,4
-14703.795,88352.01,-22216.59,-29725.56,0.0,0.0,0.0,0.0,4
-14646.195,88359.57,-22169.565,-29701.845,0.0,0.0,0.0,0.0,4
-14636.43,88366.005,-22183.74,-29689.47,0.0,0.0,0.0,0.0,4
-14612.94,88371.36,-22185.495,-29691.855,0.0,0.0,0.0,0.0,4
-14666.355,88373.52,-22203.54,-29693.385,0.0,0.0,0.0,0.0,4
-14728.68,88368.48,-22236.345,-29720.295,0.0,0.0,0.0,0.0,4
-14835.15,88357.59,-22321.755,-29743.74,0.0,0.0,0.0,0.0,4
-14882.895,88352.28,-22327.02,-29732.535,0.0,0.0,0.0,0.0,4
-14836.545,88352.955,-22274.415,-29703.51,0.0,0.0,0.0,0.0,4
-14739.39,88349.265,-22209.84,-29704.32,0.0,0.0,0.0,0.0,4
-14560.65,88351.92,-22068.225,-29679.975,0.0,0.0,0.0,0.0,4
-14510.88,88359.165,-22094.505,-29697.435,0.0,0.0,0.0,0.0,4
-14526.585,88358.085,-22146.93,-29703.69,0.0,0.0,0.0,0.0,4
-14635.98,88352.91,-22185.945,-29691.99,0.0,0.0,0.0,0.0,4
-14667.345,88348.41,-22211.955,-29716.155,0.0,0.0,0.0,0.0,4
-14717.295,88344.36,-22253.535,-29733.93,0.0,0.0,0.0,0.0,4
-14750.055,88340.445,-22252.365,-29718.99,0.0,0.0,0.0,0.0,4
-14783.265,88338.465,-22263.345,-29683.08,0.0,0.0,0.0,0.0,4
-14729.76,88345.755,-22198.32,-29654.505,0.0,0.0,0.0,0.0,4
-14577.84,88358.31,-22072.86,-29653.11,0.0,0.0,0.0,0.0,4
-14570.55,88357.68,-22152.555,-29721.105,0.0,0.0,0.0,0.0,4
-14640.885,88356.555,-22198.86,-29715.57,0.0,0.0,0.0,0.0,4
-14663.97,88355.88,-22208.715,-29717.685,0.0,0.0,0.0,0.0,4
-14680.305,88354.935,-22211.28,-29713.32,0.0,0.0,0.0,0.0,4
-14691.195,88350.39,-22223.385,-29692.575,0.0,0.0,0.0,0.0,4
-14755.815,88342.335,-22269.735,-29712.87,0.0,0.0,0.0,0.0,4
-14848.695,88334.235,-22292.19,-29740.5,0.0,0.0,0.0,0.0,4
-14785.02,88334.91,-22224.015,-29716.155,0.0,0.0,0.0,0.0,4
-14708.475,88340.67,-22169.655,-29681.955,0.0,0.0,0.0,0.0,4
-14709.285,88335.72,-22201.47,-29691.72,0.0,0.0,0.0,0.0,4
-14604.255,88334.73,-22153.995,-29681.595,0.0,0.0,0.0,0.0,4
-14521.275,88336.17,-22111.92,-29673.855,0.0,0.0,0.0,0.0,4
-14592.06,88333.335,-22167.855,-29716.155,0.0,0.0,0.0,0.0,4
-14626.62,88331.67,-22199.13,-29727.63,0.0,0.0,0.0,0.0,4
-14669.64,88330.275,-22201.47,-29710.845,0.0,0.0,0.0,0.0,4
-14701.86,88328.745,-22216.68,-29710.035,0.0,0.0,0.0,0.0,4
-14720.94,88328.16,-22238.28,-29709.765,0.0,0.0,0.0,0.0,4
-14763.87,88327.305,-22264.245,-29713.5,0.0,0.0,0.0,0.0,4
-14729.67,88338.51,-22205.205,-29696.805,0.0,0.0,0.0,0.0,4
-14653.845,88344.99,-22171.455,-29693.52,0.0,0.0,0.0,0.0,4
-14638.68,88341.975,-22176.495,-29702.7,0.0,0.0,0.0,0.0,4
-14625.63,88341.48,-22164.705,-29701.035,0.0,0.0,0.0,0.0,4
-14650.965,88335.72,-22180.23,-29691.54,0.0,0.0,0.0,0.0,4
-14706.27,88327.485,-22246.2,-29713.275,0.0,0.0,0.0,0.0,4
-14799.87,88320.555,-22268.43,-29711.565,0.0,0.0,0.0,0.0,4
-14691.015,88326.405,-22179.33,-29700.495,0.0,0.0,0.0,0.0,4
-14588.505,88334.01,-22111.965,-29681.64,0.0,0.0,0.0,0.0,4
-14599.62,88333.335,-22152.33,-29685.69,0.0,0.0,0.0,0.0,4
-14641.56,88328.79,-22197.375,-29704.275,0.0,0.0,0.0,0.0,4
-14668.875,88324.695,-22200.795,-29689.83,0.0,0.0,0.0,0.0,4
-14684.58,88319.52,-22207.005,-29694.555,0.0,0.0,0.0,0.0,4
-14702.67,88316.82,-22201.875,-29691.27,0.0,0.0,0.0,0.0,4
-14681.34,88315.335,-22192.785,-29687.805,0.0,0.0,0.0,0.0,4
-14672.475,88314.705,-22172.94,-29673.585,0.0,0.0,0.0,0.0,4
-14654.115,88316.055,-22175.505,-29691.99,0.0,0.0,0.0,0.0,4
-14694.165,88316.055,-22229.955,-29698.92,0.0,0.0,0.0,0.0,4
-14778.495,88311.42,-22298.85,-29722.095,0.0,0.0,0.0,0.0,4
-14736.69,88315.02,-22223.925,-29687.76,0.0,0.0,0.0,0.0,4
-14651.505,88320.105,-22132.935,-29638.395,0.0,0.0,0.0,0.0,4
-14683.68,88314.93,-22145.445,-29658.555,0.0,0.0,0.0,0.0,4
-14537.97,88317.495,-22036.725,-29652.255,0.0,0.0,0.0,0.0,4
-14525.145,88312.32,-22124.79,-29705.895,0.0,0.0,0.0,0.0,4
-14601.105,88305.03,-22185.045,-29710.89,0.0,0.0,0.0,0.0,4
-14654.115,88301.835,-22198.77,-29705.76,0.0,0.0,0.0,0.0,4
-14661.54,88304.085,-22200.3,-29702.835,0.0,0.0,0.0,0.0,4
-14668.56,88307.055,-22196.16,-29700.27,0.0,0.0,0.0,0.0,4
-14669.775,88309.485,-22191.165,-29701.98,0.0,0.0,0.0,0.0,4
-14673.78,88312.185,-22212.09,-29722.545,0.0,0.0,0.0,0.0,4
-14670.99,88309.71,-22206.87,-29712.42,0.0,0.0,0.0,0.0,4
-14675.445,88304.265,-22205.835,-29713.68,0.0,0.0,0.0,0.0,4
-14677.83,88298.955,-22203.405,-29712.96,0.0,0.0,0.0,0.0,4
-14671.08,88297.155,-22197.78,-29707.92,0.0,0.0,0.0,0.0,4
-14656.545,88302.285,-22190.04,-29699.955,0.0,0.0,0.0,0.0,4
-14644.845,88305.345,-22183.245,-29691.945,0.0,0.0,0.0,0.0,4
-14668.56,88303.995,-22180.995,-29685.24,0.0,0.0,0.0,0.0,4
-14697.855,88302.42,-22172.805,-29678.895,0.0,0.0,0.0,0.0,4
-14699.07,88296.93,-22183.29,-29681.055,0.0,0.0,0.0,0.0,4
-14706.09,88293.105,-22207.41,-29694.105,0.0,0.0,0.0,0.0,4
-14693.265,88292.745,-22200.12,-29709.945,0.0,0.0,0.0,0.0,4
-14655.78,88292.61,-22177.935,-29706.84,0.0,0.0,0.0,0.0,4
-14660.955,88292.34,-22194.63,-29701.755,0.0,0.0,0.0,0.0,4
-14661.045,88293.285,-22189.455,-29694.96,0.0,0.0,0.0,0.0,4
-14668.83,88295.085,-22191.39,-29695.545,0.0,0.0,0.0,0.0,4
-14678.415,88294.905,-22202.37,-29707.92,0.0,0.0,0.0,0.0,4
-14687.955,88286.445,-22230.045,-29744.73,0.0,0.0,0.0,0.0,4
-14685.39,88282.575,-22236.345,-29758.455,0.0,0.0,0.0,0.0,4
-14680.44,88285.455,-22232.205,-29757.105,0.0,0.0,0.0,0.0,4
-14680.755,88289.37,-22219.47,-29736.855,0.0,0.0,0.0,0.0,4
-14680.485,88290.495,-22219.92,-29738.25,0.0,0.0,0.0,0.0,4
-14678.82,88282.98,-22203.09,-29717.685,0.0,0.0,0.0,0.0,4
-14674.365,88275.69,-22186.935,-29694.465,0.0,0.0,0.0,0.0,4
-14669.91,88271.37,-22172.175,-29676.735,0.0,0.0,0.0,0.0,4
-14673.195,88266.105,-22167.0,-29670.345,0.0,0.0,0.0,0.0,4
-14668.245,88261.605,-22170.915,-29675.52,0.0,0.0,0.0,0.0,4
-14675.04,88258.86,-22179.015,-29683.53,0.0,0.0,0.0,0.0,4
-14676.255,88257.825,-22174.83,-29680.785,0.0,0.0,0.0,0.0,4
-14675.085,88256.88,-22183.605,-29687.58,0.0,0.0,0.0,0.0,4
-14668.515,88257.915,-22185.855,-29688.165,0.0,0.0,0.0,0.0,4
-14669.235,88259.49,-22180.095,-29678.67,0.0,0.0,0.0,0.0,4
-14680.215,88260.255,-22180.635,-29676.645,0.0,0.0,0.0,0.0,4
-14675.67,88258.275,-22142.655,-29648.7,0.0,0.0,0.0,0.0,4
-14666.175,88255.305,-22131.18,-29640.285,0.0,0.0,0.0,0.0,4
-14701.5,88251.21,-22182.345,-29670.57,0.0,0.0,0.0,0.0,4
-14737.545,88247.25,-22244.265,-29708.73,0.0,0.0,0.0,0.0,4
-14742.855,88245.135,-22221.045,-29694.6,0.0,0.0,0.0,0.0,4
-14670.27,88246.53,-22156.47,-29675.745,0.0,0.0,0.0,0.0,4
-14616.45,88249.635,-22128.255,-29671.065,0.0,0.0,0.0,0.0,4
-14614.65,88248.825,-22161.15,-29689.965,0.0,0.0,0.0,0.0,4
-14626.44,88243.92,-22173.705,-29692.395,0.0,0.0,0.0,0.0,4
-14652.54,88237.485,-22173.75,-29685.69,0.0,0.0,0.0,0.0,4
-14679.18,88234.92,-22189.365,-29696.4,0.0,0.0,0.0,0.0,4
-14708.52,88233.84,-22186.665,-29690.055,0.0,0.0,0.0,0.0,4
-14718.24,88229.88,-22183.785,-29681.28,0.0,0.0,0.0,0.0,4
-14689.125,88228.62,-22186.395,-29687.31,0.0,0.0,0.0,0.0,4
-14667.075,88228.395,-22194.63,-29701.845,0.0,0.0,0.0,0.0,4
-14670.09,88226.685,-22190.535,-29693.34,0.0,0.0,0.0,0.0,4
-14672.745,88220.43,-22190.175,-29690.235,0.0,0.0,0.0,0.0,4
-14674.905,88216.065,-22190.805,-29690.82,0.0,0.0,0.0,0.0,4
-14681.205,88212.24,-22190.31,-29682.99,0.0,0.0,0.0,0.0,4
-14679.27,88206.345,-22185.09,-29678.805,0.0,0.0,0.0,0.0,4
-14667.84,88207.83,-22162.23,-29666.34,0.0,0.0,0.0,0.0,4
-14662.935,88212.87,-22157.595,-29666.07,0.0,0.0,0.0,0.0,4
-14674.275,88214.895,-22182.39,-29686.905,0.0,0.0,0.0,0.0,4
-14675.13,88216.56,-22181.265,-29685.465,0.0,0.0,0.0,0.0,4
-14675.94,88213.41,-22174.245,-29677.455,0.0,0.0,0.0,0.0,4
-14674.59,88210.395,-22171.005,-29673.495,0.0,0.0,0.0,0.0,4
-14673.015,88208.505,-22175.775,-29675.88,0.0,0.0,0.0,0.0,4
-14671.53,88205.22,-22185.855,-29697.705,0.0,0.0,0.0,0.0,4
-14667.12,88197.93,-22212.405,-29745.72,0.0,0.0,0.0,0.0,4
-14665.455,88191.045,-22228.02,-29768.58,0.0,0.0,0.0,0.0,4
-14670.225,88187.94,-22236.03,-29774.88,0.0,0.0,0.0,0.0,4
-14673.015,88184.79,-22229.37,-29768.94,0.0,0.0,0.0,0.0,4
-14675.85,88180.38,-22217.76,-29749.725,0.0,0.0,0.0,0.0,4
-14676.165,88179.21,-22179.96,-29691.09,0.0,0.0,0.0,0.0,4
-14681.25,88178.535,-22152.87,-29629.395,0.0,0.0,0.0,0.0,4
-14680.53,88177.095,-22156.38,-29635.695,0.0,0.0,0.0,0.0,4
-14669.37,88174.755,-22168.8,-29688.705,0.0,0.0,0.0,0.0,4
-14661.27,88174.44,-22190.445,-29746.215,0.0,0.0,0.0,0.0,4
-14665.005,88175.025,-22208.4,-29772.72,0.0,0.0,0.0,0.0,4
-14670.135,88178.355,-22215.6,-29771.82,0.0,0.0,0.0,0.0,4
-14674.455,88179.12,-22210.02,-29741.22,0.0,0.0,0.0,0.0,4
-14679.045,88177.635,-22187.565,-29688.075,0.0,0.0,0.0,0.0,4
-14689.8,88174.53,-22159.35,-29624.13,0.0,0.0,0.0,0.0,4
-14693.535,88172.505,-22146.165,-29591.55,0.0,0.0,0.0,0.0,4
-14688.675,88172.91,-22151.295,-29618.145,0.0,0.0,0.0,0.0,4
-14686.92,88172.73,-22149.09,-29624.13,0.0,0.0,0.0,0.0,4
-14686.155,88175.43,-22155.93,-29634.21,0.0,0.0,0.0,0.0,4
-14680.215,88179.615,-22154.31,-29637.63,0.0,0.0,0.0,0.0,4
-14678.865,88177.725,-22157.145,-29642.895,0.0,0.0,0.0,0.0,4
-14681.205,88174.08,-22158.405,-29642.985,0.0,0.0,0.0,0.0,4
-14681.52,88168.545,-22167.99,-29654.91,0.0,0.0,0.0,0.0,4
-14682.195,88167.105,-22169.43,-29658.825,0.0,0.0,0.0,0.0,4
-14686.11,88165.755,-22174.83,-29663.28,0.0,0.0,0.0,0.0,4
-14687.595,88164.405,-22167.765,-29653.2,0.0,0.0,0.0,0.0,4
-14688.315,88165.845,-22169.61,-29654.865,0.0,0.0,0.0,0.0,4
-14695.245,88165.575,-22180.32,-29664.585,0.0,0.0,0.0,0.0,4
-14697.045,88164.54,-22182.3,-29671.2,0.0,0.0,0.0,0.0,4
-14701.77,88162.56,-22180.5,-29667.915,0.0,0.0,0.0,0.0,4
-14705.37,88162.02,-22191.255,-29675.07,0.0,0.0,0.0,0.0,4
-14720.265,88160.76,-22211.955,-29681.73,0.0,0.0,0.0,0.0,4
-14729.67,88161.3,-22216.59,-29680.56,0.0,0.0,0.0,0.0,4
-14710.77,88164.855,-22194.945,-29679.255,0.0,0.0,0.0,0.0,4
-14683.14,88169.85,-22167.81,-29669.895,0.0,0.0,0.0,0.0,4
-14695.02,88167.645,-22184.91,-29676.285,0.0,0.0,0.0,0.0,4
-14700.15,88166.52,-22183.785,-29670.03,0.0,0.0,0.0,0.0,4
-14701.905,88165.26,-22178.475,-29660.94,0.0,0.0,0.0,0.0,4
-14702.76,88161.795,-22186.125,-29671.065,0.0,0.0,0.0,0.0,4
-14700.33,88160.31,-22187.07,-29670.57,0.0,0.0,0.0,0.0,4
-14700.96,88156.035,-22185.54,-29664.405,0.0,0.0,0.0,0.0,4
-14702.58,88153.11,-22193.145,-29676.96,0.0,0.0,0.0,0.0,4
-14705.01,88152.705,-22191.57,-29675.07,0.0,0.0,0.0,0.0,4
-14705.19,88153.605,-22186.215,-29668.095,0.0,0.0,0.0,0.0,4
-14705.55,88153.47,-22186.845,-29669.49,0.0,0.0,0.0,0.0,4
-14710.41,88151.895,-22190.4,-29672.64,0.0,0.0,0.0,0.0,4
-14713.695,88150.635,-22197.015,-29679.57,0.0,0.0,0.0,0.0,4
-14713.605,88147.485,-22209.705,-29694.375,0.0,0.0,0.0,0.0,4
-14714.505,88141.095,-22219.29,-29705.805,0.0,0.0,0.0,0.0,4
-14709.33,88138.215,-22215.825,-29709.585,0.0,0.0,0.0,0.0,4
-14712.705,88138.62,-22222.575,-29715.57,0.0,0.0,0.0,0.0,4
-14718.33,88137.45,-22219.605,-29707.02,0.0,0.0,0.0,0.0,4
-14722.065,88138.575,-22213.44,-29690.1,0.0,0.0,0.0,0.0,4
-14757.975,88139.565,-22236.345,-29672.01,0.0,0.0,0.0,0.0,4
-14794.47,88141.77,-22262.22,-29678.445,0.0,0.0,0.0,0.0,4
-14770.44,88146.36,-22203.72,-29663.82,0.0,0.0,0.0,0.0,4
-14691.69,88146.18,-22134.555,-29644.74,0.0,0.0,0.0,0.0,4
-14674.455,88143.075,-22137.255,-29643.615,0.0,0.0,0.0,0.0,4
-14682.105,88138.755,-22148.145,-29651.895,0.0,0.0,0.0,0.0,4
-14692.815,88134.255,-22161.69,-29656.98,0.0,0.0,0.0,0.0,4
-14710.635,88137.72,-22177.845,-29662.785,0.0,0.0,0.0,0.0,4
-14719.41,88140.015,-22185.54,-29665.53,0.0,0.0,0.0,0.0,4
-14726.97,88140.285,-22205.745,-29678.175,0.0,0.0,0.0,0.0,4
-14721.795,88141.14,-22194.765,-29673.54,0.0,0.0,0.0,0.0,4
-14709.24,88139.25,-22184.685,-29668.14,0.0,0.0,0.0,0.0,4
-14708.34,88135.965,-22185.135,-29669.535,0.0,0.0,0.0,0.0,4
-14715.54,88130.97,-22189.545,-29670.975,0.0,0.0,0.0,0.0,4
-14719.185,88127.955,-22188.015,-29670.12,0.0,0.0,0.0,0.0,4
-14721.57,88128.675,-22194.54,-29674.35,0.0,0.0,0.0,0.0,4
-14726.88,88128.495,-22203.315,-29678.04,0.0,0.0,0.0,0.0,4
-14729.31,88130.07,-22211.415,-29689.02,0.0,0.0,0.0,0.0,4
-14726.295,88129.305,-22207.365,-29689.02,0.0,0.0,0.0,0.0,4
-14727.555,88127.91,-22206.555,-29686.23,0.0,0.0,0.0,0.0,4
-14728.905,88129.71,-22206.87,-29686.725,0.0,0.0,0.0,0.0,4
-14730.345,88134.84,-22203.18,-29681.325,0.0,0.0,0.0,0.0,4
-14728.68,88139.43,-22201.875,-29678.58,0.0,0.0,0.0,0.0,4
-14736.78,88135.785,-22207.41,-29681.415,0.0,0.0,0.0,0.0,4
-14735.88,88133.355,-22210.47,-29690.505,0.0,0.0,0.0,0.0,4
-14731.29,88129.98,-22217.94,-29701.755,0.0,0.0,0.0,0.0,4
-14735.025,88126.02,-22221.765,-29698.11,0.0,0.0,0.0,0.0,4
-14736.24,88122.96,-22216.14,-29690.46,0.0,0.0,0.0,0.0,4
-14745.555,88118.64,-22225.005,-29688.12,0.0,0.0,0.0,0.0,4
-14772.555,88117.92,-22253.49,-29696.49,0.0,0.0,0.0,0.0,4
-14784.84,88119.945,-22259.43,-29700.495,0.0,0.0,0.0,0.0,4
-14744.115,88119.495,-22210.47,-29692.08,0.0,0.0,0.0,0.0,4
-14711.805,88119.27,-22188.375,-29690.595,0.0,0.0,0.0,0.0,4
-14711.76,88118.73,-22186.17,-29688.03,0.0,0.0,0.0,0.0,4
-14708.52,88115.355,-22192.785,-29688.165,0.0,0.0,0.0,0.0,4
-14730.615,88112.025,-22216.77,-29693.925,0.0,0.0,0.0,0.0,4
-14732.64,88110.585,-22209.975,-29688.975,0.0,0.0,0.0,0.0,4
-14734.62,88105.95,-22209.705,-29685.195,0.0,0.0,0.0,0.0,4
-14734.89,88101.81,-22208.715,-29685.645,0.0,0.0,0.0,0.0,4
-14738.76,88098.93,-22214.7,-29690.955,0.0,0.0,0.0,0.0,4
-14746.14,88098.21,-22227.705,-29697.165,0.0,0.0,0.0,0.0,4
-14762.295,88099.65,-22241.97,-29699.145,0.0,0.0,0.0,0.0,4
-14769.54,88098.48,-22243.995,-29699.865,0.0,0.0,0.0,0.0,4
-14743.17,88096.14,-22206.87,-29685.825,0.0,0.0,0.0,0.0,4
-14723.1,88094.115,-22194.495,-29686.23,0.0,0.0,0.0,0.0,4
-14726.745,88091.28,-22202.415,-29687.445,0.0,0.0,0.0,0.0,4
-14731.11,88085.835,-22204.53,-29685.285,0.0,0.0,0.0,0.0,4
-14734.62,88077.555,-22203.09,-29678.49,0.0,0.0,0.0,0.0,4
-14740.695,88069.275,-22211.685,-29680.74,0.0,0.0,0.0,0.0,4
-14756.76,88063.47,-22234.095,-29696.04,0.0,0.0,0.0,0.0,4
-14766.84,88063.29,-22236.84,-29692.17,0.0,0.0,0.0,0.0,4
-14763.375,88068.105,-22234.095,-29696.85,0.0,0.0,0.0,0.0,4
-14735.835,88075.26,-22191.435,-29683.215,0.0,0.0,0.0,0.0,4
-14711.67,88081.065,-22194.405,-29691.225,0.0,0.0,0.0,0.0,4
-14720.625,88085.655,-22222.44,-29703.51,0.0,0.0,0.0,0.0,4
-14737.59,88091.325,-22210.965,-29684.79,0.0,0.0,0.0,0.0,4
-14737.005,88092.09,-22209.39,-29682.0,0.0,0.0,0.0,0.0,4
-14730.705,88087.77,-22221.27,-29700.36,0.0,0.0,0.0,0.0,4
-14735.43,88077.33,-22222.395,-29699.055,0.0,0.0,0.0,0.0,4
-14739.48,88073.82,-22225.23,-29702.61,0.0,0.0,0.0,0.0,4
-14745.24,88074.72,-22227.12,-29704.68,0.0,0.0,0.0,0.0,4
-14748.57,88077.555,-22228.155,-29705.58,0.0,0.0,0.0,0.0,4
-14747.445,88081.2,-22223.97,-29700.765,0.0,0.0,0.0,0.0,4
-14746.275,88077.87,-22224.105,-29700.045,0.0,0.0,0.0,0.0,4
-14750.055,88077.285,-22224.465,-29699.595,0.0,0.0,0.0,0.0,4
-14748.165,88080.435,-22221.405,-29696.94,0.0,0.0,0.0,0.0,4
-14746.365,88083.675,-22219.605,-29694.735,0.0,0.0,0.0,0.0,4
-14745.015,88081.47,-22221.765,-29698.47,0.0,0.0,0.0,0.0,4
-14749.74,88078.005,-22219.065,-29694.285,0.0,0.0,0.0,0.0,4
-14752.71,88073.235,-22222.035,-29694.69,0.0,0.0,0.0,0.0,4
-14749.74,88070.58,-22220.145,-29694.33,0.0,0.0,0.0,0.0,4
-14750.91,88066.53,-22216.59,-29691.135,0.0,0.0,0.0,0.0,4
-14752.935,88062.48,-22222.89,-29693.79,0.0,0.0,0.0,0.0,4
-14754.015,88064.01,-22223.925,-29691.675,0.0,0.0,0.0,0.0,4
-14751.405,88068.15,-22229.91,-29699.325,0.0,0.0,0.0,0.0,4
-14749.02,88071.975,-22228.02,-29700.72,0.0,0.0,0.0,0.0,4
-14750.64,88074.36,-22226.58,-29698.245,0.0,0.0,0.0,0.0,4
-14752.575,88075.845,-22220.775,-29693.07,0.0,0.0,0.0,0.0,4
-14749.335,88071.48,-22215.375,-29688.66,0.0,0.0,0.0,0.0,4
-14752.845,88061.67,-22224.015,-29694.375,0.0,0.0,0.0,0.0,4
-14760.81,88056.99,-22228.02,-29692.125,0.0,0.0,0.0,0.0,4
-14766.3,88059.015,-22248.72,-29715.93,0.0,0.0,0.0,0.0,4
-14772.285,88060.545,-22244.13,-29711.34,0.0,0.0,0.0,0.0,4
-14758.335,88061.985,-22226.355,-29703.33,0.0,0.0,0.0,0.0,4
-14743.53,88060.86,-22219.2,-29699.82,0.0,0.0,0.0,0.0,4
-14752.98,88054.11,-22228.2,-29703.96,0.0,0.0,0.0,0.0,4
-14755.59,88061.67,-22229.505,-29703.42,0.0,0.0,0.0,0.0,4
-14753.295,88063.92,-22228.695,-29700.63,0.0,0.0,0.0,0.0,4
-14753.565,88061.895,-22230.18,-29698.695,0.0,0.0,0.0,0.0,4
-14762.745,88054.56,-22240.98,-29700.405,0.0,0.0,0.0,0.0,4
-14778.225,88049.295,-22256.505,-29703.645,0.0,0.0,0.0,0.0,4
-14790.87,88046.28,-22261.455,-29706.03,0.0,0.0,0.0,0.0,4
-14770.395,88045.56,-22230.495,-29698.47,0.0,0.0,0.0,0.0,4
-14740.74,88048.755,-22210.38,-29693.655,0.0,0.0,0.0,0.0,4
-14739.39,88054.56,-22211.505,-29692.755,0.0,0.0,0.0,0.0,4
-14742.36,88054.245,-22214.655,-29695.095,0.0,0.0,0.0,0.0,4
-14752.755,88055.955,-22219.74,-29693.43,0.0,0.0,0.0,0.0,4
-14757.795,88059.15,-22230.63,-29695.68,0.0,0.0,0.0,0.0,4
-14796.63,88056.945,-22274.955,-29714.13,0.0,0.0,0.0,0.0,4
-14818.545,88056.99,-22284.72,-29718.945,0.0,0.0,0.0,0.0,4
-14760.45,88062.93,-22220.145,-29706.705,0.0,0.0,0.0,0.0,4
-14705.82,88065.585,-22195.125,-29707.02,0.0,0.0,0.0,0.0,4
-14728.365,88062.84,-22212.27,-29708.595,0.0,0.0,0.0,0.0,4
-14740.965,88057.305,-22226.13,-29710.845,0.0,0.0,0.0,0.0,4
-14744.97,88054.065,-22223.835,-29701.485,0.0,0.0,0.0,0.0,4
-14745.915,88053.48,-22216.86,-29691.18,0.0,0.0,0.0,0.0,4
-14746.365,88052.535,-22219.74,-29695.86,0.0,0.0,0.0,0.0,4
-14753.07,88044.345,-22231.35,-29705.58,0.0,0.0,0.0,0.0,4
-14753.025,88037.1,-22226.265,-29699.505,0.0,0.0,0.0,0.0,4
-14754.195,88040.655,-22223.97,-29698.515,0.0,0.0,0.0,0.0,4
-14758.065,88046.01,-22227.435,-29699.28,0.0,0.0,0.0,0.0,4
-14756.94,88049.07,-22226.58,-29699.415,0.0,0.0,0.0,0.0,4
-14758.56,88050.96,-22224.285,-29698.515,0.0,0.0,0.0,0.0,4
-14758.065,88050.915,-22227.165,-29702.655,0.0,0.0,0.0,0.0,4
-14767.11,88050.735,-22239.765,-29710.035,0.0,0.0,0.0,0.0,4
-14765.355,88047.855,-22238.55,-29708.28,0.0,0.0,0.0,0.0,4
-14759.1,88045.155,-22235.49,-29708.055,0.0,0.0,0.0,0.0,4
-14756.805,88042.41,-22229.28,-29701.98,0.0,0.0,0.0,0.0,4
-14758.38,88037.505,-22228.245,-29698.605,0.0,0.0,0.0,0.0,4
-14758.335,88030.98,-22230.225,-29702.07,0.0,0.0,0.0,0.0,4
-14760.09,88031.295,-22227.3,-29699.01,0.0,0.0,0.0,0.0,4
-14758.92,88032.96,-22234.14,-29706.21,0.0,0.0,0.0,0.0,4
-14763.15,88035.255,-22231.125,-29698.605,0.0,0.0,0.0,0.0,4
-14761.89,88034.13,-22225.68,-29689.335,0.0,0.0,0.0,0.0,4
-14752.485,88036.2,-22236.48,-29708.865,0.0,0.0,0.0,0.0,4
-14756.94,88039.62,-22232.745,-29701.575,0.0,0.0,0.0,0.0,4
-14764.68,88039.8,-22240.215,-29707.965,0.0,0.0,0.0,0.0,4
-14760.405,88035.255,-22233.15,-29701.44,0.0,0.0,0.0,0.0,4
-14750.37,88031.925,-22225.005,-29697.66,0.0,0.0,0.0,0.0,4
-14754.87,88032.465,-22222.755,-29692.485,0.0,0.0,0.0,0.0,4
-14755.365,88032.15,-22228.38,-29698.245,0.0,0.0,0.0,0.0,4
-14754.285,88029.225,-22223.97,-29692.08,0.0,0.0,0.0,0.0,4
-14757.48,88027.83,-22230.855,-29695.905,0.0,0.0,0.0,0.0,4
-14758.74,88028.37,-22231.035,-29696.31,0.0,0.0,0.0,0.0,4
-14760.36,88030.26,-22231.755,-29695.725,0.0,0.0,0.0,0.0,4
-14760.0,88030.98,-22228.155,-29690.865,0.0,0.0,0.0,0.0,4
-14760.045,88029.315,-22235.895,-29700.405,0.0,0.0,0.0,0.0,4
-14760.45,88027.83,-22232.745,-29696.94,0.0,0.0,0.0,0.0,4
-14760.99,88026.345,-22224.105,-29685.915,0.0,0.0,0.0,0.0,4
-14761.215,88020.63,-22234.68,-29699.505,0.0,0.0,0.0,0.0,4
-14762.565,88019.82,-22233.96,-29697.885,0.0,0.0,0.0,0.0,4
-14756.715,88026.48,-22228.29,-29692.395,0.0,0.0,0.0,0.0,4
-14756.04,88029.945,-22231.125,-29698.695,0.0,0.0,0.0,0.0,4
-14762.295,88028.595,-22235.76,-29701.305,0.0,0.0,0.0,0.0,4
-14765.895,88031.52,-22234.095,-29695.725,0.0,0.0,0.0,0.0,4
-14762.655,88037.37,-22233.105,-29695.5,0.0,0.0,0.0,0.0,4
-14763.78,88040.295,-22239.36,-29702.295,0.0,0.0,0.0,0.0,4
-14764.725,88038.045,-22237.2,-29703.105,0.0,0.0,0.0,0.0,4
-14766.255,88034.355,-22232.97,-29700.09,0.0,0.0,0.0,0.0,4
-14763.6,88034.13,-22234.995,-29701.53,0.0,0.0,0.0,0.0,4
-14760.45,88035.21,-22236.615,-29705.085,0.0,0.0,0.0,0.0,4
-14766.255,88027.785,-22246.155,-29720.385,0.0,0.0,0.0,0.0,4
-14770.395,88021.305,-22248.495,-29718.945,0.0,0.0,0.0,0.0,4
-14768.91,88020.945,-22246.965,-29715.84,0.0,0.0,0.0,0.0,4
-14770.17,88021.935,-22234.905,-29699.955,0.0,0.0,0.0,0.0,4
-14770.035,88021.53,-22222.8,-29684.43,0.0,0.0,0.0,0.0,4
-14770.62,88021.305,-22228.425,-29687.67,0.0,0.0,0.0,0.0,4
-14767.38,88027.11,-22237.47,-29699.415,0.0,0.0,0.0,0.0,4
-14768.73,88035.57,-22235.895,-29696.805,0.0,0.0,0.0,0.0,4
-14772.42,88040.205,-22232.475,-29692.08,0.0,0.0,0.0,0.0,4
-14768.01,88038.855,-22234.005,-29696.13,0.0,0.0,0.0,0.0,4
-14771.295,88032.78,-22236.03,-29696.22,0.0,0.0,0.0,0.0,4
-14765.94,88028.55,-22225.275,-29683.08,0.0,0.0,0.0,0.0,4
-14768.91,88026.66,-22236.705,-29695.32,0.0,0.0,0.0,0.0,4
-14770.89,88026.885,-22243.365,-29709.135,0.0,0.0,0.0,0.0,4
-14769.54,88028.82,-22238.415,-29703.24,0.0,0.0,0.0,0.0,4
-14770.98,88028.01,-22239.045,-29704.14,0.0,0.0,0.0,0.0,4
-14769.675,88024.41,-22236.12,-29700.945,0.0,0.0,0.0,0.0,4
-14769.27,88016.625,-22235.085,-29699.235,0.0,0.0,0.0,0.0,4
-14770.305,88016.805,-22238.37,-29702.79,0.0,0.0,0.0,0.0,4
-14770.575,88017.21,-22235.58,-29698.38,0.0,0.0,0.0,0.0,4
-14769.315,88013.295,-22239.495,-29704.14,0.0,0.0,0.0,0.0,4
-14772.015,88015.815,-22241.205,-29705.445,0.0,0.0,0.0,0.0,4
-14774.67,88015.77,-22238.325,-29700.765,0.0,0.0,0.0,0.0,4
-14773.41,88012.35,-22239.72,-29703.645,0.0,0.0,0.0,0.0,4
-14770.845,88008.255,-22238.73,-29704.455,0.0,0.0,0.0,0.0,4
-14773.545,88004.79,-22242.645,-29707.245,0.0,0.0,0.0,0.0,4
-14770.62,88005.87,-22227.345,-29689.74,0.0,0.0,0.0,0.0,4
-14768.685,88008.93,-22234.95,-29700.315,0.0,0.0,0.0,0.0,4
-14773.455,88012.035,-22243.905,-29709.72,0.0,0.0,0.0,0.0,4
-14772.24,88017.885,-22247.01,-29713.005,0.0,0.0,0.0,0.0,4
-14772.915,88022.835,-22244.985,-29708.775,0.0,0.0,0.0,0.0,4
-14768.325,88025.985,-22235.265,-29699.37,0.0,0.0,0.0,0.0,4
-14760.54,88027.38,-22231.44,-29698.065,0.0,0.0,0.0,0.0,4
-14760.495,88028.145,-22236.255,-29699.46,0.0,0.0,0.0,0.0,4
-14763.555,88027.65,-22240.215,-29701.98,0.0,0.0,0.0,0.0,4
-14760.09,88024.905,-22236.03,-29698.875,0.0,0.0,0.0,0.0,4
-14759.82,88020.09,-22229.37,-29691.36,0.0,0.0,0.0,0.0,4
-14763.69,88014.555,-22232.43,-29691.495,0.0,0.0,0.0,0.0,4
-14760.0,88012.215,-22232.025,-29692.755,0.0,0.0,0.0,0.0,4
-14762.025,88012.08,-22230.0,-29692.845,0.0,0.0,0.0,0.0,4
-14761.89,88008.705,-22226.895,-29686.95,0.0,0.0,0.0,0.0,4
-14764.41,88008.795,-22236.57,-29698.515,0.0,0.0,0.0,0.0,4
-14767.74,88009.11,-22234.995,-29696.715,0.0,0.0,0.0,0.0,4
-14761.98,88004.565,-22234.995,-29698.155,0.0,0.0,0.0,0.0,4
-14765.355,87999.03,-22236.3,-29698.47,0.0,0.0,0.0,0.0,4
-14768.595,87995.205,-22240.215,-29702.52,0.0,0.0,0.0,0.0,4
-14768.55,87994.53,-22245.525,-29712.15,0.0,0.0,0.0,0.0,4
-14773.455,87993.81,-22240.215,-29702.97,0.0,0.0,0.0,0.0,4
-14767.695,87996.735,-22238.505,-29702.16,0.0,0.0,0.0,0.0,4
-14767.965,87997.995,-22238.19,-29701.755,0.0,0.0,0.0,0.0,4
-14773.095,87997.86,-22236.795,-29696.85,0.0,0.0,0.0,0.0,4
-14769.765,87999.12,-22232.79,-29694.24,0.0,0.0,0.0,0.0,4
-14768.865,87999.705,-22236.255,-29699.82,0.0,0.0,0.0,0.0,4
-14768.415,88002.36,-22235.985,-29701.44,0.0,0.0,0.0,0.0,4
-14772.825,88001.235,-22242.42,-29706.345,0.0,0.0,0.0,0.0,4
-14776.47,88000.155,-22246.965,-29708.865,0.0,0.0,0.0,0.0,4
-14773.86,88001.91,-22245.795,-29710.125,0.0,0.0,0.0,0.0,4
-14770.665,88004.61,-22240.395,-29704.59,0.0,0.0,0.0,0.0,4
-14773.68,88001.325,-22237.47,-29699.775,0.0,0.0,0.0,0.0,4
-14772.69,87998.445,-22237.11,-29698.56,0.0,0.0,0.0,0.0,4
-14771.07,87993.0,-22237.38,-29699.325,0.0,0.0,0.0,0.0,4
-14769.36,87992.01,-22231.53,-29693.295,0.0,0.0,0.0,0.0,4
-14769.315,87996.24,-22230.945,-29692.71,0.0,0.0,0.0,0.0,4
-14771.79,88000.56,-22233.87,-29694.555,0.0,0.0,0.0,0.0,4
-14776.695,88007.13,-22245.12,-29706.075,0.0,0.0,0.0,0.0,4
-14778.495,88009.965,-22246.65,-29705.04,0.0,0.0,0.0,0.0,4
-14773.23,88011.45,-22245.795,-29709.855,0.0,0.0,0.0,0.0,4
-14773.14,88009.785,-22241.43,-29704.05,0.0,0.0,0.0,0.0,4
-14774.22,88004.88,-22241.655,-29704.545,0.0,0.0,0.0,0.0,4
-14773.14,88001.55,-22240.08,-29703.915,0.0,0.0,0.0,0.0,4
-14776.605,88000.83,-22241.295,-29704.23,0.0,0.0,0.0,0.0,4
-14778.27,88000.695,-22236.075,-29697.255,0.0,0.0,0.0,0.0,4
-14775.84,88004.7,-22233.24,-29697.795,0.0,0.0,0.0,0.0,4
-14774.4,88004.25,-22239.81,-29706.03,0.0,0.0,0.0,0.0,4
-14772.42,88001.73,-22236.885,-29700.495,0.0,0.0,0.0,0.0,4
-14776.065,87999.165,-22250.7,-29715.615,0.0,0.0,0.0,0.0,4
-14780.43,88001.01,-22247.415,-29712.195,0.0,0.0,0.0,0.0,4
-14777.82,88001.55,-22243.95,-29708.595,0.0,0.0,0.0,0.0,4
-14778.675,88001.685,-22245.255,-29709.315,0.0,0.0,0.0,0.0,4
-14778.54,88008.345,-22244.13,-29708.37,0.0,0.0,0.0,0.0,4
-14775.795,88013.745,-22235.58,-29701.755,0.0,0.0,0.0,0.0,4
-14777.82,88020.09,-22241.925,-29708.64,0.0,0.0,0.0,0.0,4
-14782.905,88027.38,-22247.865,-29712.69,0.0,0.0,0.0,0.0,4
-14784.75,88031.7,-22244.895,-29705.265,0.0,0.0,0.0,0.0,4
-14779.44,88033.905,-22233.78,-29693.07,0.0,0.0,0.0,0.0,4
-14777.55,88034.715,-22242.015,-29706.615,0.0,0.0,0.0,0.0,4
-14774.265,88032.51,-22247.595,-29715.21,0.0,0.0,0.0,0.0,4
-14774.94,88025.535,-22243.005,-29707.515,0.0,0.0,0.0,0.0,4
-14774.49,88017.885,-22244.175,-29710.35,0.0,0.0,0.0,0.0,4
-14784.3,88015.41,-22253.04,-29713.095,0.0,0.0,0.0,0.0,4
-14785.245,88013.385,-22257.945,-29715.255,0.0,0.0,0.0,0.0,4
-14783.31,88013.16,-22251.6,-29711.025,0.0,0.0,0.0,0.0,4
-14778.18,88014.78,-22247.82,-29713.68,0.0,0.0,0.0,0.0,4
-14778.72,88015.95,-22245.48,-29710.665,0.0,0.0,0.0,0.0,4
-14780.88,88014.78,-22248.765,-29713.365,0.0,0.0,0.0,0.0,4
-14782.455,88014.105,-22250.34,-29714.175,0.0,0.0,0.0,0.0,4
-14781.33,88015.815,-22245.345,-29708.055,0.0,0.0,0.0,0.0,4
-14780.385,88015.275,-22248.135,-29709.99,0.0,0.0,0.0,0.0,4
-14783.67,88015.815,-22252.005,-29712.645,0.0,0.0,0.0,0.0,4
-14782.905,88016.49,-22249.26,-29710.26,0.0,0.0,0.0,0.0,4
-14779.845,88012.53,-22243.095,-29703.465,0.0,0.0,0.0,0.0,4
-14781.195,88009.02,-22244.355,-29702.7,0.0,0.0,0.0,0.0,4
-14782.635,88005.96,-22251.015,-29709.27,0.0,0.0,0.0,0.0,4
-14781.015,88007.04,-22248.945,-29707.155,0.0,0.0,0.0,0.0,4
-14783.31,88011.99,-22244.175,-29702.07,0.0,0.0,0.0,0.0,4
-14783.265,88014.6,-22242.69,-29698.605,0.0,0.0,0.0,0.0,4
-14779.755,88013.385,-22243.005,-29701.035,0.0,0.0,0.0,0.0,4
-14778.855,88006.905,-22240.89,-29698.65,0.0,0.0,0.0,0.0,4
-14781.87,88001.01,-22253.94,-29712.24,0.0,0.0,0.0,0.0,4
-14777.865,88001.28,-22244.805,-29705.76,0.0,0.0,0.0,0.0,4
-14778.45,87999.03,-22242.69,-29701.08,0.0,0.0,0.0,0.0,4
-14781.015,87993.18,-22242.42,-29697.795,0.0,0.0,0.0,0.0,4
-14779.305,87990.435,-22245.255,-29703.555,0.0,0.0,0.0,0.0,4
-14775.48,87988.545,-22240.08,-29700.63,0.0,0.0,0.0,0.0,4
-14780.07,87986.43,-22244.94,-29702.565,0.0,0.0,0.0,0.0,4
-14778.63,87987.51,-22246.605,-29702.385,0.0,0.0,0.0,0.0,4
-14781.51,87987.555,-22250.205,-29705.175,0.0,0.0,0.0,0.0,4
-14785.695,87988.275,-22246.11,-29696.805,0.0,0.0,0.0,0.0,4
-14781.78,87991.11,-22249.305,-29704.23,0.0,0.0,0.0,0.0,4
-14777.82,87990.12,-22243.365,-29703.015,0.0,0.0,0.0,0.0,4
-14775.795,87987.195,-22239.72,-29702.655,0.0,0.0,0.0,0.0,4
-14779.44,87983.955,-22243.23,-29705.265,0.0,0.0,0.0,0.0,4
-14781.96,87981.48,-22242.24,-29702.97,0.0,0.0,0.0,0.0,4
-14778.36,87981.39,-22234.905,-29695.905,0.0,0.0,0.0,0.0,4
-14779.665,87982.875,-22234.455,-29694.915,0.0,0.0,0.0,0.0,4
-14785.875,87982.515,-22245.12,-29706.03,0.0,0.0,0.0,0.0,4
-14786.955,87976.98,-22254.39,-29712.87,0.0,0.0,0.0,0.0,4
-14785.2,87972.48,-22243.59,-29702.655,0.0,0.0,0.0,0.0,4
-14784.66,87968.835,-22239.495,-29698.29,0.0,0.0,0.0,0.0,4
-14782.545,87966.45,-22242.825,-29703.06,0.0,0.0,0.0,0.0,4
-14786.865,87960.33,-22247.145,-29704.68,0.0,0.0,0.0,0.0,4
-14793.885,87954.705,-22253.355,-29707.155,0.0,0.0,0.0,0.0,4
-14792.04,87954.255,-22243.725,-29698.065,0.0,0.0,0.0,0.0,4
-14790.87,87954.165,-22249.665,-29705.13,0.0,0.0,0.0,0.0,4
-14793.21,87947.82,-22253.85,-29707.695,0.0,0.0,0.0,0.0,4
-14790.465,87942.195,-22247.415,-29703.915,0.0,0.0,0.0,0.0,4
-14791.86,87944.85,-22246.605,-29703.015,0.0,0.0,0.0,0.0,4
-14797.305,87945.525,-22255.47,-29712.78,0.0,0.0,0.0,0.0,4
-14794.245,87944.04,-22257.585,-29715.975,0.0,0.0,0.0,0.0,4
-14798.25,87946.2,-22256.415,-29711.97,0.0,0.0,0.0,0.0,4
-14798.745,87949.845,-22262.94,-29714.985,0.0,0.0,0.0,0.0,4
-14800.77,87951.465,-22263.525,-29716.2,0.0,0.0,0.0,0.0,4
-14800.86,87948.81,-22259.88,-29714.4,0.0,0.0,0.0,0.0,4
-14799.69,87948.495,-22250.655,-29706.57,0.0,0.0,0.0,0.0,4
-14796.675,87952.095,-22262.13,-29721.96,0.0,0.0,0.0,0.0,4
-14797.35,87955.515,-22259.295,-29719.44,0.0,0.0,0.0,0.0,4
-14799.87,87953.805,-22258.62,-29718.54,0.0,0.0,0.0,0.0,4
-14801.94,87948.045,-22266.045,-29725.74,0.0,0.0,0.0,0.0,4
-14801.31,87944.085,-22262.49,-29722.725,0.0,0.0,0.0,0.0,4
-14801.265,87942.06,-22253.985,-29710.125,0.0,0.0,0.0,0.0,4
-14799.78,87937.92,-22258.755,-29716.74,0.0,0.0,0.0,0.0,4
-14799.33,87935.535,-22259.97,-29717.595,0.0,0.0,0.0,0.0,4
-14802.3,87932.52,-22260.645,-29718.72,0.0,0.0,0.0,0.0,4
-14803.38,87930.63,-22253.94,-29710.08,0.0,0.0,0.0,0.0,4
-14799.375,87928.56,-22257.585,-29714.625,0.0,0.0,0.0,0.0,4
-14800.095,87928.695,-22260.555,-29721.915,0.0,0.0,0.0,0.0,4
-14801.535,87930.9,-22267.08,-29728.17,0.0,0.0,0.0,0.0,4
-14803.29,87931.44,-22264.02,-29724.57,0.0,0.0,0.0,0.0,4
-14794.29,87934.59,-22254.525,-29718.54,0.0,0.0,0.0,0.0,4
-14793.345,87936.3,-22260.33,-29723.04,0.0,0.0,0.0,0.0,4
-14794.515,87934.995,-22257.315,-29719.53,0.0,0.0,0.0,0.0,4
-14794.335,87931.845,-22255.515,-29716.83,0.0,0.0,0.0,0.0,4
-14793.075,87926.445,-22255.29,-29716.56,0.0,0.0,0.0,0.0,4
-14791.14,87922.485,-22254.885,-29716.155,0.0,0.0,0.0,0.0,4
-14791.905,87918.93,-22256.505,-29716.83,0.0,0.0,0.0,0.0,4
-14790.285,87917.49,-22252.23,-29712.42,0.0,0.0,0.0,0.0,4
-14788.89,87914.115,-22246.065,-29707.515,0.0,0.0,0.0,0.0,4
-14789.205,87908.985,-22247.37,-29709.585,0.0,0.0,0.0,0.0,4
-14795.415,87907.05,-22253.355,-29714.94,0.0,0.0,0.0,0.0,4
-14797.71,87907.005,-22257.72,-29716.875,0.0,0.0,0.0,0.0,4
-14801.445,87904.08,-22265.775,-29723.895,0.0,0.0,0.0,0.0,4
-14800.815,87904.935,-22260.15,-29717.1,0.0,0.0,0.0,0.0,4
-14799.555,87905.7,-22254.165,-29709.855,0.0,0.0,0.0,0.0,4
-14800.77,87905.88,-22259.16,-29719.98,0.0,0.0,0.0,0.0,4
-14799.915,87908.22,-22253.67,-29718.405,0.0,0.0,0.0,0.0,4
-14801.13,87909.255,-22269.24,-29729.25,0.0,0.0,0.0,0.0,4
-14802.12,87910.965,-22268.655,-29729.295,0.0,0.0,0.0,0.0,4
-14802.165,87909.795,-22265.64,-29724.975,0.0,0.0,0.0,0.0,4
-14800.815,87904.71,-22264.38,-29723.985,0.0,0.0,0.0,0.0,4
-14801.895,87903.9,-22265.055,-29725.29,0.0,0.0,0.0,0.0,4
-14803.965,87905.07,-22266.09,-29726.91,0.0,0.0,0.0,0.0,4
-14808.42,87907.68,-22268.115,-29727.765,0.0,0.0,0.0,0.0,4
-14807.115,87907.905,-22267.53,-29727.585,0.0,0.0,0.0,0.0,4
-14802.84,87905.16,-22262.715,-29723.94,0.0,0.0,0.0,0.0,4
-14808.645,87902.01,-22255.65,-29711.34,0.0,0.0,0.0,0.0,4
-14806.755,87902.55,-22260.96,-29719.71,0.0,0.0,0.0,0.0,4
-14805.27,87902.19,-22269.825,-29732.895,0.0,0.0,0.0,0.0,4
-14807.79,87901.245,-22279.23,-29741.4,0.0,0.0,0.0,0.0,4
-14803.245,87900.075,-22274.235,-29736.045,0.0,0.0,0.0,0.0,4
-14804.865,87901.245,-22271.535,-29733.795,0.0,0.0,0.0,0.0,4
-14806.62,87895.755,-22272.75,-29731.545,0.0,0.0,0.0,0.0,4
-14804.775,87899.31,-22272.57,-29735.91,0.0,0.0,0.0,0.0,4
-14809.32,87900.705,-22280.94,-29742.255,0.0,0.0,0.0,0.0,4
-14810.445,87898.41,-22275.945,-29738.34,0.0,0.0,0.0,0.0,4
-14811.885,87893.235,-22279.95,-29740.815,0.0,0.0,0.0,0.0,4
-14810.625,87890.31,-22278.195,-29739.42,0.0,0.0,0.0,0.0,4
-14808.78,87894.135,-22272.795,-29736.045,0.0,0.0,0.0,0.0,4
-14805.945,87896.385,-22269.195,-29732.31,0.0,0.0,0.0,0.0,4
-14810.58,87898.77,-22278.555,-29741.58,0.0,0.0,0.0,0.0,4
-14811.03,87900.795,-22280.67,-29742.165,0.0,0.0,0.0,0.0,4
-14809.905,87902.82,-22269.51,-29729.475,0.0,0.0,0.0,0.0,4
-14806.215,87903.63,-22269.78,-29730.285,0.0,0.0,0.0,0.0,4
-14807.295,87905.205,-22268.97,-29726.91,0.0,0.0,0.0,0.0,4
-14807.745,87907.68,-22270.86,-29730.6,0.0,0.0,0.0,0.0,4
-14807.295,87906.33,-22274.955,-29737.44,0.0,0.0,0.0,0.0,4
-14815.71,87904.395,-22281.615,-29739.015,0.0,0.0,0.0,0.0,4
-14809.23,87901.38,-22276.215,-29736.0,0.0,0.0,0.0,0.0,4
-14809.59,87896.925,-22273.74,-29733.66,0.0,0.0,0.0,0.0,4
-14812.47,87887.88,-22276.08,-29734.245,0.0,0.0,0.0,0.0,4
-14813.91,87883.83,-22278.375,-29736.63,0.0,0.0,0.0,0.0,4
-14816.565,87879.78,-22279.23,-29735.82,0.0,0.0,0.0,0.0,4
-14817.42,87877.26,-22278.195,-29732.85,0.0,0.0,0.0,0.0,4
-14818.32,87876.09,-22283.055,-29737.8,0.0,0.0,0.0,0.0,4
-14819.175,87877.71,-22279.14,-29736.315,0.0,0.0,0.0,0.0,4
-14811.12,87880.32,-22275.405,-29736.18,0.0,0.0,0.0,0.0,4
-14811.075,87883.335,-22280.535,-29738.295,0.0,0.0,0.0,0.0,4
-14812.695,87886.44,-22278.78,-29737.125,0.0,0.0,0.0,0.0,4
-14814.72,87889.635,-22283.19,-29739.465,0.0,0.0,0.0,0.0,4
-14814.945,87889.86,-22284.0,-29741.625,0.0,0.0,0.0,0.0,4
-14817.195,87889.14,-22287.78,-29745.99,0.0,0.0,0.0,0.0,4
-14820.57,87892.47,-22284.81,-29740.905,0.0,0.0,0.0,0.0,4
-14823.315,87896.655,-22285.755,-29739.015,0.0,0.0,0.0,0.0,4
-14817.735,87895.53,-22290.165,-29741.58,0.0,0.0,0.0,0.0,4
-14818.59,87893.955,-22297.14,-29748.15,0.0,0.0,0.0,0.0,4
-14817.915,87893.055,-22284.63,-29734.83,0.0,0.0,0.0,0.0,4
-14816.07,87892.56,-22287.24,-29742.48,0.0,0.0,0.0,0.0,4
-14822.415,87887.79,-22301.55,-29755.845,0.0,0.0,0.0,0.0,4
-14822.82,87880.41,-22300.02,-29752.92,0.0,0.0,0.0,0.0,4
-14824.395,87878.16,-22287.465,-29736.405,0.0,0.0,0.0,0.0,4
-14819.49,87881.535,-22286.205,-29735.595,0.0,0.0,0.0,0.0,4
-14819.355,87884.37,-22295.835,-29749.23,0.0,0.0,0.0,0.0,4
-14821.83,87885.63,-22292.505,-29744.145,0.0,0.0,0.0,0.0,4
-14820.615,87888.735,-22287.42,-29738.475,0.0,0.0,0.0,0.0,4
-14816.295,87892.83,-22288.14,-29741.715,0.0,0.0,0.0,0.0,4
-14822.235,87893.595,-22293.945,-29745.36,0.0,0.0,0.0,0.0,4
-14829.57,87894.765,-22301.775,-29748.825,0.0,0.0,0.0,0.0,4
-14827.365,87895.575,-22302.45,-29747.97,0.0,0.0,0.0,0.0,4
-14828.22,87895.44,-22304.79,-29751.48,0.0,0.0,0.0,0.0,4
-14830.38,87893.505,-22301.1,-29749.725,0.0,0.0,0.0,0.0,4
-14829.705,87892.29,-22297.095,-29744.01,0.0,0.0,0.0,0.0,4
-14827.545,87895.395,-22296.375,-29744.28,0.0,0.0,0.0,0.0,4
-14819.22,87896.565,-22290.345,-29754.315,0.0,0.0,0.0,0.0,4
-14816.52,87893.28,-22291.56,-29751.12,0.0,0.0,0.0,0.0,4
-14818.185,87889.185,-22293.765,-29744.82,0.0,0.0,0.0,0.0,4
-14816.97,87885.135,-22291.065,-29744.145,0.0,0.0,0.0,0.0,4
-14821.605,87881.31,-22298.085,-29746.17,0.0,0.0,0.0,0.0,4
-14820.84,87878.61,-22286.745,-29736.54,0.0,0.0,0.0,0.0,4
-14823.765,87872.175,-22303.53,-29753.64,0.0,0.0,0.0,0.0,4
-14824.665,87865.02,-22307.445,-29757.105,0.0,0.0,0.0,0.0,4
-14823.855,87864.255,-22299.84,-29750.76,0.0,0.0,0.0,0.0,4
-14823.495,87868.17,-22300.695,-29751.345,0.0,0.0,0.0,0.0,4
-14825.79,87870.69,-22301.28,-29750.94,0.0,0.0,0.0,0.0,4
-14824.98,87870.42,-22295.655,-29745.045,0.0,0.0,0.0,0.0,4
-14830.02,87870.87,-22297.905,-29747.52,0.0,0.0,0.0,0.0,4
-14827.77,87869.07,-22297.23,-29750.355,0.0,0.0,0.0,0.0,4
-14826.285,87868.485,-22305.24,-29756.52,0.0,0.0,0.0,0.0,4
-14827.815,87870.015,-22306.41,-29758.095,0.0,0.0,0.0,0.0,4
-14828.625,87872.445,-22303.08,-29753.595,0.0,0.0,0.0,0.0,4
-14832.405,87875.73,-22305.105,-29757.285,0.0,0.0,0.0,0.0,4
-14834.745,87882.795,-22308.435,-29760.12,0.0,0.0,0.0,0.0,4
-14834.295,87889.455,-22304.34,-29755.485,0.0,0.0,0.0,0.0,4
-14836.365,87894.36,-22298.31,-29750.13,0.0,0.0,0.0,0.0,4
-14840.37,87899.49,-22301.865,-29750.715,0.0,0.0,0.0,0.0,4
-14838.255,87904.845,-22307.13,-29759.175,0.0,0.0,0.0,0.0,4
-14829.84,87906.78,-22308.66,-29764.62,0.0,0.0,0.0,0.0,4
-14833.305,87905.745,-22303.17,-29761.155,0.0,0.0,0.0,0.0,4
-14843.97,87900.705,-22309.02,-29759.985,0.0,0.0,0.0,0.0,4
-14838.12,87894.72,-22311.63,-29763.99,0.0,0.0,0.0,0.0,4
-14834.385,87893.775,-22304.79,-29761.245,0.0,0.0,0.0,0.0,4
-14840.73,87892.38,-22316.4,-29770.29,0.0,0.0,0.0,0.0,4
-14844.33,87887.61,-22317.48,-29769.975,0.0,0.0,0.0,0.0,4
-14844.105,87885.09,-22312.08,-29764.665,0.0,0.0,0.0,0.0,4
-14845.14,87885.9,-22316.13,-29768.04,0.0,0.0,0.0,0.0,4
-14845.05,87885.405,-22306.23,-29757.78,0.0,0.0,0.0,0.0,4
-14845.725,87882.93,-22300.785,-29753.91,0.0,0.0,0.0,0.0,4
-14847.255,87882.48,-22313.97,-29767.32,0.0,0.0,0.0,0.0,4
-14836.5,87880.905,-22306.59,-29763.765,0.0,0.0,0.0,0.0,4
-14837.67,87874.65,-22319.595,-29772.855,0.0,0.0,0.0,0.0,4
-14849.685,87870.375,-22323.195,-29775.24,0.0,0.0,0.0,0.0,4
-14853.105,87867.36,-22322.205,-29776.5,0.0,0.0,0.0,0.0,4
-14852.565,87870.78,-22320.495,-29774.925,0.0,0.0,0.0,0.0,4
-14853.825,87876.09,-22319.505,-29772.405,0.0,0.0,0.0,0.0,4
-14857.29,87877.305,-22323.69,-29774.61,0.0,0.0,0.0,0.0,4
-14857.695,87877.17,-22324.365,-29775.105,0.0,0.0,0.0,0.0,4
-14854.365,87875.325,-22318.695,-29772.18,0.0,0.0,0.0,0.0,4
-14854.365,87873.795,-22322.205,-29775.465,0.0,0.0,0.0,0.0,4
-14858.19,87874.56,-22327.785,-29780.28,0.0,0.0,0.0,0.0,4
-14857.83,87873.165,-22325.49,-29777.715,0.0,0.0,0.0,0.0,4
-14857.11,87868.62,-22327.74,-29783.07,0.0,0.0,0.0,0.0,4
-14857.965,87867.27,-22325.22,-29781.135,0.0,0.0,0.0,0.0,4
-14862.78,87867.9,-22322.7,-29778.57,0.0,0.0,0.0,0.0,4
-14868.495,87869.745,-22328.28,-29781.765,0.0,0.0,0.0,0.0,4
-14864.31,87868.755,-22330.305,-29787.21,0.0,0.0,0.0,0.0,4
-14862.915,87868.89,-22338.27,-29790.045,0.0,0.0,0.0,0.0,4
-14861.7,87869.025,-22338.27,-29791.98,0.0,0.0,0.0,0.0,4
-14862.24,87867.765,-22334.805,-29789.415,0.0,0.0,0.0,0.0,4
-14859.765,87867.405,-22330.665,-29784.15,0.0,0.0,0.0,0.0,4
-14866.155,87865.02,-22334.94,-29786.805,0.0,0.0,0.0,0.0,4
-14865.255,87857.37,-22341.195,-29793.645,0.0,0.0,0.0,0.0,4
-14860.485,87852.555,-22332.105,-29785.59,0.0,0.0,0.0,0.0,4
-14857.245,87854.355,-22322.52,-29779.695,0.0,0.0,0.0,0.0,4
-14865.075,87853.545,-22335.39,-29788.065,0.0,0.0,0.0,0.0,4
-14869.35,87853.095,-22341.105,-29792.34,0.0,0.0,0.0,0.0,4
-14869.98,87852.735,-22339.485,-29791.305,0.0,0.0,0.0,0.0,4
-14870.295,87851.07,-22339.62,-29791.26,0.0,0.0,0.0,0.0,4
-14871.015,87849.18,-22337.64,-29788.65,0.0,0.0,0.0,0.0,4
-14875.02,87849.135,-22337.955,-29787.57,0.0,0.0,0.0,0.0,4
-14876.37,87847.56,-22345.11,-29796.84,0.0,0.0,0.0,0.0,4
-14876.1,87844.905,-22348.89,-29801.475,0.0,0.0,0.0,0.0,4
-14874.075,87843.87,-22346.775,-29797.38,0.0,0.0,0.0,0.0,4
-14875.785,87845.94,-22348.08,-29797.245,0.0,0.0,0.0,0.0,4
-14876.01,87844.905,-22346.505,-29795.76,0.0,0.0,0.0,0.0,4
-14876.37,87839.37,-22348.44,-29799.09,0.0,0.0,0.0,0.0,4
-14874.705,87831.045,-22343.67,-29793.33,0.0,0.0,0.0,0.0,4
-14875.875,87827.49,-22343.04,-29792.52,0.0,0.0,0.0,0.0,4
-14879.295,87828.93,-22347.315,-29795.67,0.0,0.0,0.0,0.0,4
-14880.15,87830.46,-22340.655,-29787.165,0.0,0.0,0.0,0.0,4
-14871.105,87832.305,-22343.265,-29793.465,0.0,0.0,0.0,0.0,4
-14876.055,87832.53,-22352.67,-29802.645,0.0,0.0,0.0,0.0,4
-14877.0,87834.87,-22339.845,-29788.83,0.0,0.0,0.0,0.0,4
-14876.865,87837.615,-22344.39,-29790.855,0.0,0.0,0.0,0.0,4
-14880.42,87842.925,-22353.12,-29795.355,0.0,0.0,0.0,0.0,4
-14867.235,87846.705,-22344.84,-29799.36,0.0,0.0,0.0,0.0,4
-14865.57,87847.11,-22348.845,-29806.065,0.0,0.0,0.0,0.0,4
-14873.49,87846.39,-22341.555,-29795.94,0.0,0.0,0.0,0.0,4
-14870.07,87844.14,-22338.585,-29796.57,0.0,0.0,0.0,0.0,4
-14868.765,87838.515,-22351.005,-29804.22,0.0,0.0,0.0,0.0,4
-14866.515,87831.27,-22350.465,-29805.615,0.0,0.0,0.0,0.0,4
-14872.86,87823.395,-22350.69,-29802.96,0.0,0.0,0.0,0.0,4
-14872.59,87820.065,-22350.465,-29804.805,0.0,0.0,0.0,0.0,4
-14873.94,87816.735,-22350.06,-29805.12,0.0,0.0,0.0,0.0,4
-14876.415,87814.26,-22343.805,-29797.74,0.0,0.0,0.0,0.0,4
-14874.93,87811.875,-22348.035,-29801.97,0.0,0.0,0.0,0.0,4
-14875.515,87809.895,-22350.33,-29802.645,0.0,0.0,0.0,0.0,4
-14877.54,87806.43,-22352.445,-29807.325,0.0,0.0,0.0,0.0,4
-14881.185,87803.55,-22357.305,-29812.32,0.0,0.0,0.0,0.0,4
-14881.23,87799.005,-22351.365,-29805.93,0.0,0.0,0.0,0.0,4
-14880.825,87793.11,-22354.47,-29811.195,0.0,0.0,0.0,0.0,4
-14893.65,87790.095,-22367.52,-29815.92,0.0,0.0,0.0,0.0,4
-14891.265,87790.815,-22360.23,-29807.55,0.0,0.0,0.0,0.0,4
-14882.58,87789.285,-22361.49,-29815.065,0.0,0.0,0.0,0.0,4
-14883.165,87786.495,-22365.585,-29819.88,0.0,0.0,0.0,0.0,4
-14886.855,87786.225,-22362.03,-29813.985,0.0,0.0,0.0,0.0,4
-14891.49,87786.135,-22354.2,-29803.725,0.0,0.0,0.0,0.0,4
-14887.98,87785.46,-22349.97,-29805.48,0.0,0.0,0.0,0.0,4
-14887.53,87785.505,-22366.53,-29819.52,0.0,0.0,0.0,0.0,4
-14891.625,87788.565,-22364.91,-29814.885,0.0,0.0,0.0,0.0,4
-14888.565,87792.075,-22369.68,-29818.125,0.0,0.0,0.0,0.0,4
-14885.505,87796.305,-22367.205,-29820.825,0.0,0.0,0.0,0.0,4
-14888.205,87798.375,-22367.79,-29821.815,0.0,0.0,0.0,0.0,4
-14900.085,87800.895,-22369.32,-29817.0,0.0,0.0,0.0,0.0,4
-14900.49,87803.955,-22364.865,-29810.745,0.0,0.0,0.0,0.0,4
-14888.655,87802.56,-22372.605,-29829.285,0.0,0.0,0.0,0.0,4
-14888.79,87802.11,-22364.055,-29821.5,0.0,0.0,0.0,0.0,4
-14886.63,87801.93,-22368.78,-29825.82,0.0,0.0,0.0,0.0,4
-14885.775,87800.13,-22369.635,-29827.89,0.0,0.0,0.0,0.0,4
-14891.76,87794.595,-22365.09,-29818.53,0.0,0.0,0.0,0.0,4
-14884.065,87787.305,-22363.515,-29817.72,0.0,0.0,0.0,0.0,4
-14884.02,87782.13,-22371.93,-29830.995,0.0,0.0,0.0,0.0,4
-14886.27,87781.005,-22371.525,-29829.42,0.0,0.0,0.0,0.0,4
-14885.145,87779.43,-22360.77,-29816.235,0.0,0.0,0.0,0.0,4
-14889.825,87778.755,-22363.065,-29815.83,0.0,0.0,0.0,0.0,4
-14889.375,87781.14,-22368.375,-29822.265,0.0,0.0,0.0,0.0,4
-14888.34,87782.58,-22365.09,-29818.935,0.0,0.0,0.0,0.0,4
-14887.98,87780.915,-22359.33,-29810.97,0.0,0.0,0.0,0.0,4
-14881.545,87779.88,-22360.635,-29817.765,0.0,0.0,0.0,0.0,4
-14879.295,87779.97,-22361.76,-29819.115,0.0,0.0,0.0,0.0,4
-14881.995,87781.77,-22362.48,-29818.35,0.0,0.0,0.0,0.0,4
-14883.525,87787.26,-22362.57,-29818.17,0.0,0.0,0.0,0.0,4
-14884.2,87787.71,-22364.19,-29820.465,0.0,0.0,0.0,0.0,4
-14884.38,87786.18,-22364.775,-29821.275,0.0,0.0,0.0,0.0,4
-14886.54,87786.99,-22370.805,-29828.34,0.0,0.0,0.0,0.0,4
-14890.365,87792.39,-22371.165,-29827.44,0.0,0.0,0.0,0.0,4
-14894.505,87796.935,-22362.525,-29815.02,0.0,0.0,0.0,0.0,4
-14889.78,87796.89,-22363.56,-29819.295,0.0,0.0,0.0,0.0,4
-14891.58,87797.52,-22371.66,-29828.385,0.0,0.0,0.0,0.0,4
-14895.99,87796.98,-22375.665,-29829.015,0.0,0.0,0.0,0.0,4
-14889.24,87795.54,-22372.29,-29827.8,0.0,0.0,0.0,0.0,4
-14888.565,87790.5,-22367.88,-29825.82,0.0,0.0,0.0,0.0,4
-14890.905,87790.68,-22370.265,-29827.8,0.0,0.0,0.0,0.0,4
-14891.985,87795.135,-22369.545,-29824.155,0.0,0.0,0.0,0.0,4
-14893.515,87794.73,-22368.915,-29823.435,0.0,0.0,0.0,0.0,4
-14891.76,87793.425,-22368.33,-29823.39,0.0,0.0,0.0,0.0,4
-14892.39,87793.425,-22364.73,-29820.78,0.0,0.0,0.0,0.0,4
-14892.03,87791.31,-22365.225,-29821.545,0.0,0.0,0.0,0.0,4
-14894.415,87790.995,-22372.515,-29825.46,0.0,0.0,0.0,0.0,4
-14891.445,87793.335,-22367.385,-29821.005,0.0,0.0,0.0,0.0,4
-14895.945,87791.715,-22370.94,-29825.055,0.0,0.0,0.0,0.0,4
-14900.445,87788.295,-22366.395,-29821.77,0.0,0.0,0.0,0.0,4
-14897.115,87787.035,-22368.825,-29826.135,0.0,0.0,0.0,0.0,4
-14892.84,87786.135,-22361.31,-29819.295,0.0,0.0,0.0,0.0,4
-14897.43,87785.955,-22367.34,-29823.435,0.0,0.0,0.0,0.0,4
-14899.32,87788.07,-22364.55,-29816.19,0.0,0.0,0.0,0.0,4
-14901.57,87788.385,-22365.63,-29817.405,0.0,0.0,0.0,0.0,4
-14904.135,87787.71,-22370.355,-29821.455,0.0,0.0,0.0,0.0,4
-14898.06,87786.945,-22366.89,-29820.87,0.0,0.0,0.0,0.0,4
-14893.875,87786.585,-22380.615,-29841.345,0.0,0.0,0.0,0.0,4
-14897.745,87783.525,-22373.775,-29833.245,0.0,0.0,0.0,0.0,4
-14895.315,87779.835,-22370.94,-29829.78,0.0,0.0,0.0,0.0,4
-14895.945,87780.645,-22368.87,-29824.155,0.0,0.0,0.0,0.0,4
-14894.145,87784.47,-22365.855,-29820.735,0.0,0.0,0.0,0.0,4
-14894.235,87786.585,-22363.245,-29817.405,0.0,0.0,0.0,0.0,4
-14900.94,87789.465,-22360.68,-29811.465,0.0,0.0,0.0,0.0,4
-14902.155,87790.275,-22367.97,-29818.395,0.0,0.0,0.0,0.0,4
-14897.88,87790.95,-22371.03,-29822.355,0.0,0.0,0.0,0.0,4
-14894.01,87792.435,-22365.495,-29819.205,0.0,0.0,0.0,0.0,4
-14893.29,87793.785,-22362.165,-29815.425,0.0,0.0,0.0,0.0,4
-14899.59,87791.22,-22358.925,-29808.315,0.0,0.0,0.0,0.0,4
-14895.72,87788.88,-22358.565,-29812.095,0.0,0.0,0.0,0.0,4
-14899.005,87785.325,-22368.24,-29815.515,0.0,0.0,0.0,0.0,4
-14901.165,87781.455,-22373.865,-29818.44,0.0,0.0,0.0,0.0,4
-14894.235,87780.87,-22374.585,-29828.52,0.0,0.0,0.0,0.0,4
-14895.945,87777.945,-22365.09,-29819.565,0.0,0.0,0.0,0.0,4
-14898.555,87775.515,-22367.565,-29820.555,0.0,0.0,0.0,0.0,4
-14896.08,87774.345,-22359.69,-29814.345,0.0,0.0,0.0,0.0,4
-14893.155,87774.12,-22363.47,-29816.64,0.0,0.0,0.0,0.0,4
-14897.385,87770.16,-22367.205,-29816.28,0.0,0.0,0.0,0.0,4
-14898.42,87763.32,-22366.98,-29818.215,0.0,0.0,0.0,0.0,4
-14898.015,87760.395,-22370.67,-29822.895,0.0,0.0,0.0,0.0,4
-14889.915,87761.97,-22360.23,-29813.58,0.0,0.0,0.0,0.0,4
-14890.815,87759.585,-22362.615,-29814.93,0.0,0.0,0.0,0.0,4
-14892.795,87757.875,-22367.16,-29819.745,0.0,0.0,0.0,0.0,4
-14888.79,87757.65,-22357.17,-29810.25,0.0,0.0,0.0,0.0,4
-14888.34,87757.92,-22358.52,-29813.67,0.0,0.0,0.0,0.0,4
-14888.565,87757.335,-22356.585,-29810.115,0.0,0.0,0.0,0.0,4
-14886.54,87754.455,-22350.87,-29803.455,0.0,0.0,0.0,0.0,4
-14882.445,87751.8,-22347.315,-29801.88,0.0,0.0,0.0,0.0,4
-14887.755,87749.46,-22351.14,-29802.195,0.0,0.0,0.0,0.0,4
-14885.505,87749.325,-22360.005,-29813.445,0.0,0.0,0.0,0.0,4
-14882.895,87751.53,-22353.255,-29807.19,0.0,0.0,0.0,0.0,4
-14886.09,87751.395,-22348.62,-29799.495,0.0,0.0,0.0,0.0,4
-14884.875,87751.98,-22355.865,-29808.945,0.0,0.0,0.0,0.0,4
-14884.515,87753.15,-22347.045,-29799.765,0.0,0.0,0.0,0.0,4
-14883.795,87751.125,-22350.78,-29804.265,0.0,0.0,0.0,0.0,4
-14886.315,87751.395,-22359.015,-29812.005,0.0,0.0,0.0,0.0,4
-14890.14,87753.51,-22359.465,-29812.365,0.0,0.0,0.0,0.0,4
-14887.53,87752.835,-22353.345,-29805.03,0.0,0.0,0.0,0.0,4
-14885.775,87749.595,-22355.82,-29806.695,0.0,0.0,0.0,0.0,4
-14883.345,87746.49,-22351.14,-29803.365,0.0,0.0,0.0,0.0,4
-14881.095,87746.085,-22348.8,-29804.445,0.0,0.0,0.0,0.0,4
-14881.815,87743.25,-22354.47,-29808.945,0.0,0.0,0.0,0.0,4
-14881.185,87742.305,-22355.01,-29807.685,0.0,0.0,0.0,0.0,4
-14879.88,87743.16,-22347.72,-29800.44,0.0,0.0,0.0,0.0,4
-14881.59,87742.53,-22351.14,-29804.4,0.0,0.0,0.0,0.0,4
-14875.875,87741.45,-22345.155,-29798.955,0.0,0.0,0.0,0.0,4
-14871.6,87742.755,-22338.18,-29795.625,0.0,0.0,0.0,0.0,4
-14866.02,87736.86,-22330.53,-29788.965,0.0,0.0,0.0,0.0,4
-14868.315,87732.135,-22341.24,-29795.535,0.0,0.0,0.0,0.0,4
-14872.32,87740.055,-22343.13,-29797.29,0.0,0.0,0.0,0.0,4
-14875.245,87741.72,-22346.685,-29801.745,0.0,0.0,0.0,0.0,4
-14873.67,87741.405,-22355.505,-29813.31,0.0,0.0,0.0,0.0,4
-14871.24,87740.235,-22338.99,-29794.68,0.0,0.0,0.0,0.0,4
-14869.395,87736.635,-22338.945,-29795.445,0.0,0.0,0.0,0.0,4
-14868.045,87734.205,-22341.24,-29798.955,0.0,0.0,0.0,0.0,4
-14866.74,87735.105,-22341.105,-29799.045,0.0,0.0,0.0,0.0,4
-14863.995,87736.77,-22327.065,-29781.27,0.0,0.0,0.0,0.0,4
-14862.645,87734.475,-22333.32,-29788.965,0.0,0.0,0.0,0.0,4
-14866.875,87730.065,-22343.67,-29799.27,0.0,0.0,0.0,0.0,4
-14865.03,87727.635,-22337.865,-29795.49,0.0,0.0,0.0,0.0,4
-14861.43,87723.045,-22331.745,-29789.055,0.0,0.0,0.0,0.0,4
-14862.015,87714.36,-22333.59,-29787.48,0.0,0.0,0.0,0.0,4
-14859.945,87710.22,-22331.61,-29787.48,0.0,0.0,0.0,0.0,4
-14858.73,87705.36,-22331.61,-29789.28,0.0,0.0,0.0,0.0,4
-14858.595,87700.95,-22328.145,-29784.105,0.0,0.0,0.0,0.0,4
-14855.175,87699.87,-22322.925,-29777.76,0.0,0.0,0.0,0.0,4
-14858.865,87697.35,-22325.22,-29778.345,0.0,0.0,0.0,0.0,4
-14860.44,87693.615,-22333.77,-29786.67,0.0,0.0,0.0,0.0,4
-14855.715,87688.53,-22329.36,-29783.61,0.0,0.0,0.0,0.0,4
-14854.095,87685.785,-22328.955,-29784.465,0.0,0.0,0.0,0.0,4
-14855.58,87685.875,-22325.715,-29778.39,0.0,0.0,0.0,0.0,4
-14858.505,87689.61,-22324.14,-29775.465,0.0,0.0,0.0,0.0,4
-14859.765,87691.995,-22326.12,-29779.65,0.0,0.0,0.0,0.0,4
-14853.285,87690.96,-22317.435,-29772.855,0.0,0.0,0.0,0.0,4
-14846.895,87687.27,-22320.27,-29777.67,0.0,0.0,0.0,0.0,4
-14848.74,87684.705,-22314.78,-29768.355,0.0,0.0,0.0,0.0,4
-14853.24,87685.11,-22317.03,-29768.22,0.0,0.0,0.0,0.0,4
-14854.725,87687.405,-22326.075,-29782.125,0.0,0.0,0.0,0.0,4
-14853.915,87685.965,-22320.765,-29777.445,0.0,0.0,0.0,0.0,4
-14859.405,87683.085,-22326.615,-29779.605,0.0,0.0,0.0,0.0,4
-14858.325,87683.355,-22324.905,-29778.165,0.0,0.0,0.0,0.0,4
-14852.16,87684.12,-22324.68,-29782.485,0.0,0.0,0.0,0.0,4
-14853.285,87684.48,-22317.93,-29773.305,0.0,0.0,0.0,0.0,4
-14855.4,87683.13,-22320.72,-29775.915,0.0,0.0,0.0,0.0,4
-14858.73,87681.195,-22335.48,-29789.595,0.0,0.0,0.0,0.0,4
-14853.105,87678.72,-22330.53,-29790.54,0.0,0.0,0.0,0.0,4
-14850.675,87679.08,-22324.68,-29783.34,0.0,0.0,0.0,0.0,4
-14850.27,87682.455,-22321.44,-29779.515,0.0,0.0,0.0,0.0,4
-14853.015,87683.31,-22324.095,-29781.855,0.0,0.0,0.0,0.0,4
-14857.245,87682.365,-22324.815,-29780.28,0.0,0.0,0.0,0.0,4
-14852.385,87681.645,-22329.945,-29789.415,0.0,0.0,0.0,0.0,4
-14850.945,87681.825,-22323.915,-29781.315,0.0,0.0,0.0,0.0,4
-14849.82,87680.07,-22321.71,-29781.63,0.0,0.0,0.0,0.0,4
-14862.24,87677.82,-22319.685,-29771.55,0.0,0.0,0.0,0.0,4
-14865.75,87678.81,-22315.995,-29764.35,0.0,0.0,0.0,0.0,4
-14854.68,87678.45,-22327.29,-29783.88,0.0,0.0,0.0,0.0,4
-14856.66,87678.27,-22332.69,-29788.695,0.0,0.0,0.0,0.0,4
-14854.815,87677.415,-22323.015,-29776.32,0.0,0.0,0.0,0.0,4
-14852.16,87675.885,-22325.67,-29781.405,0.0,0.0,0.0,0.0,4
-14855.085,87676.47,-22327.875,-29782.71,0.0,0.0,0.0,0.0,4
-14853.015,87676.83,-22318.155,-29771.37,0.0,0.0,0.0,0.0,4
-14850.945,87675.3,-22318.02,-29770.65,0.0,0.0,0.0,0.0,4
-14849.955,87674.4,-22319.595,-29772.945,0.0,0.0,0.0,0.0,4
-14850.315,87676.83,-22316.985,-29769.03,0.0,0.0,0.0,0.0,4
-14849.82,87678.585,-22309.29,-29759.4,0.0,0.0,0.0,0.0,4
-14850.99,87679.485,-22300.875,-29746.17,0.0,0.0,0.0,0.0,4
-14845.32,87679.62,-22310.055,-29762.73,0.0,0.0,0.0,0.0,4
-14849.235,87676.695,-22315.59,-29769.705,0.0,0.0,0.0,0.0,4
-14847.66,87673.905,-22331.025,-29791.08,0.0,0.0,0.0,0.0,4
-14855.715,87671.16,-22331.88,-29787.12,0.0,0.0,0.0,0.0,4
-14861.925,87671.7,-22324.77,-29773.62,0.0,0.0,0.0,0.0,4
-14856.57,87673.68,-22324.05,-29773.305,0.0,0.0,0.0,0.0,4
-14849.37,87674.445,-22318.875,-29775.195,0.0,0.0,0.0,0.0,4
-14850.18,87673.365,-22319.955,-29776.545,0.0,0.0,0.0,0.0,4
-14852.115,87673.815,-22322.07,-29778.255,0.0,0.0,0.0,0.0,4
-14851.305,87674.805,-22319.325,-29772.18,0.0,0.0,0.0,0.0,4
-14849.64,87677.955,-22315.32,-29768.67,0.0,0.0,0.0,0.0,4
-14849.19,87679.845,-22328.055,-29784.78,0.0,0.0,0.0,0.0,4
-14849.1,87681.33,-22320.405,-29777.085,0.0,0.0,0.0,0.0,4
-14846.4,87684.075,-22316.625,-29775.06,0.0,0.0,0.0,0.0,4
-14845.905,87686.325,-22317.525,-29776.365,0.0,0.0,0.0,0.0,4
-14848.155,87684.705,-22317.21,-29773.8,0.0,0.0,0.0,0.0,4
-14853.645,87683.13,-22309.155,-29760.57,0.0,0.0,0.0,0.0,4
-14839.245,87682.59,-22307.265,-29765.34,0.0,0.0,0.0,0.0,4
-14839.245,87679.485,-22310.505,-29769.84,0.0,0.0,0.0,0.0,4
-14840.415,87676.785,-22305.375,-29761.47,0.0,0.0,0.0,0.0,4
-14837.4,87677.37,-22302.315,-29757.735,0.0,0.0,0.0,0.0,4
-14838.615,87679.8,-22298.715,-29751.165,0.0,0.0,0.0,0.0,4
-14837.76,87678.855,-22302.495,-29755.305,0.0,0.0,0.0,0.0,4
-14840.73,87672.645,-22312.53,-29769.93,0.0,0.0,0.0,0.0,4
-14833.035,87669.765,-22298.445,-29755.08,0.0,0.0,0.0,0.0,4
-14830.74,87667.47,-22299.705,-29752.83,0.0,0.0,0.0,0.0,4
-14832.945,87666.39,-22300.38,-29754.63,0.0,0.0,0.0,0.0,4
-14839.02,87661.755,-22303.125,-29755.35,0.0,0.0,0.0,0.0,4
-14837.04,87659.055,-22305.015,-29759.355,0.0,0.0,0.0,0.0,4
-14834.79,87657.975,-22311.63,-29766.24,0.0,0.0,0.0,0.0,4
-14839.515,87657.075,-22311.09,-29762.01,0.0,0.0,0.0,0.0,4
-14839.065,87655.185,-22312.98,-29764.665,0.0,0.0,0.0,0.0,4
-14835.195,87650.505,-22306.455,-29761.38,0.0,0.0,0.0,0.0,4
-14834.88,87645.96,-22301.28,-29755.35,0.0,0.0,0.0,0.0,4
-14834.52,87642.63,-22301.505,-29755.845,0.0,0.0,0.0,0.0,4
-14835.06,87641.1,-22298.445,-29751.39,0.0,0.0,0.0,0.0,4
-14834.655,87641.145,-22303.305,-29757.78,0.0,0.0,0.0,0.0,4
-14833.845,87638.535,-22297.095,-29750.445,0.0,0.0,0.0,0.0,4
-14833.44,87636.15,-22288.275,-29737.665,0.0,0.0,0.0,0.0,4
-14830.11,87633.675,-22299.57,-29747.34,0.0,0.0,0.0,0.0,4
-14834.835,87632.325,-22299.345,-29745.675,0.0,0.0,0.0,0.0,4
-14834.52,87625.485,-22299.345,-29747.115,0.0,0.0,0.0,0.0,4
-14831.145,87617.565,-22297.545,-29748.555,0.0,0.0,0.0,0.0,4
-14829.255,87614.46,-22311.45,-29767.095,0.0,0.0,0.0,0.0,4
-14831.82,87616.26,-22296.78,-29748.915,0.0,0.0,0.0,0.0,4
-14830.83,87623.235,-22288.23,-29740.23,0.0,0.0,0.0,0.0,4
-14831.955,87631.695,-22299.93,-29749.275,0.0,0.0,0.0,0.0,4
-14826.33,87636.195,-22293.135,-29746.575,0.0,0.0,0.0,0.0,4
-14823.945,87637.32,-22294.395,-29747.97,0.0,0.0,0.0,0.0,4
-14825.835,87635.295,-22289.04,-29740.05,0.0,0.0,0.0,0.0,4
-14825.115,87633.765,-22281.93,-29729.52,0.0,0.0,0.0,0.0,4
-14819.67,87628.455,-22286.88,-29738.565,0.0,0.0,0.0,0.0,4
-14812.74,87622.785,-22291.515,-29748.105,0.0,0.0,0.0,0.0,4
-14817.96,87617.61,-22289.535,-29741.67,0.0,0.0,0.0,0.0,4
-14816.52,87615.9,-22289.58,-29744.73,0.0,0.0,0.0,0.0,4
-14814.135,87615.315,-22282.74,-29735.64,0.0,0.0,0.0,0.0,4
-14816.565,87613.2,-22293.135,-29747.61,0.0,0.0,0.0,0.0,4
-14819.355,87612.12,-22305.105,-29762.055,0.0,0.0,0.0,0.0,4
-14823.495,87611.76,-22293.495,-29746.305,0.0,0.0,0.0,0.0,4
-14824.62,87609.645,-22295.295,-29749.86,0.0,0.0,0.0,0.0,4
-14824.665,87608.7,-22294.125,-29749.32,0.0,0.0,0.0,0.0,4
-14823.135,87608.295,-22290.435,-29744.64,0.0,0.0,0.0,0.0,4
-14821.695,87605.235,-22289.355,-29743.02,0.0,0.0,0.0,0.0,4
-14818.815,87601.815,-22285.62,-29739.285,0.0,0.0,0.0,0.0,4
-14819.805,87600.33,-22289.94,-29744.82,0.0,0.0,0.0,0.0,4
-14823.63,87598.935,-22290.885,-29742.525,0.0,0.0,0.0,0.0,4
-14822.28,87596.91,-22289.715,-29740.77,0.0,0.0,0.0,0.0,4
-14816.205,87594.435,-22283.505,-29736.495,0.0,0.0,0.0,0.0,4
-14817.555,87592.545,-22275.765,-29725.02,0.0,0.0,0.0,0.0,4
-14817.15,87588.585,-22282.38,-29736.855,0.0,0.0,0.0,0.0,4
-14815.665,87587.865,-22286.025,-29741.445,0.0,0.0,0.0,0.0,4
-14815.755,87587.505,-22285.53,-29740.095,0.0,0.0,0.0,0.0,4
-14817.87,87584.895,-22286.7,-29739.645,0.0,0.0,0.0,0.0,4
-14818.86,87580.71,-22289.49,-29745.27,0.0,0.0,0.0,0.0,4
-14814.585,87579.225,-22286.25,-29743.065,0.0,0.0,0.0,0.0,4
-14812.02,87576.75,-22287.375,-29745.405,0.0,0.0,0.0,0.0,4
-14817.33,87576.705,-22288.815,-29744.685,0.0,0.0,0.0,0.0,4
-14818.095,87580.755,-22279.905,-29735.73,0.0,0.0,0.0,0.0,4
-14820.03,87582.555,-22297.545,-29754.945,0.0,0.0,0.0,0.0,4
-14816.88,87584.58,-22285.8,-29741.895,0.0,0.0,0.0,0.0,4
-14814.045,87583.095,-22280.355,-29734.47,0.0,0.0,0.0,0.0,4
-14814.045,87579.945,-22288.14,-29744.865,0.0,0.0,0.0,0.0,4
-14814.405,87576.525,-22286.565,-29745.585,0.0,0.0,0.0,0.0,4
-14815.215,87572.16,-22291.02,-29749.095,0.0,0.0,0.0,0.0,4
-14818.32,87569.73,-22289.85,-29745.63,0.0,0.0,0.0,0.0,4
-14819.22,87569.73,-22294.35,-29753.37,0.0,0.0,0.0,0.0,4
-14817.06,87571.035,-22291.65,-29751.885,0.0,0.0,0.0,0.0,4
-14815.395,87568.11,-22280.895,-29738.025,0.0,0.0,0.0,0.0,4
-14818.14,87565.59,-22287.42,-29744.505,0.0,0.0,0.0,0.0,4
-14822.235,87571.98,-22289.22,-29748.555,0.0,0.0,0.0,0.0,4
-14820.255,87579.495,-22297.59,-29757.195,0.0,0.0,0.0,0.0,4
-14820.165,87586.335,-22296.78,-29754.81,0.0,0.0,0.0,0.0,4
-14823.9,87589.485,-22298.04,-29756.61,0.0,0.0,0.0,0.0,4
-14827.095,87591.78,-22297.725,-29757.105,0.0,0.0,0.0,0.0,4
-14826.87,87592.905,-22298.085,-29757.96,0.0,0.0,0.0,0.0,4
-14827.68,87591.915,-22299.93,-29759.985,0.0,0.0,0.0,0.0,4
-14827.95,87595.065,-22297.995,-29757.15,0.0,0.0,0.0,0.0,4
-14824.035,87598.26,-22300.065,-29761.065,0.0,0.0,0.0,0.0,4
-14822.1,87597.99,-22295.835,-29756.34,0.0,0.0,0.0,0.0,4
-14819.265,87594.525,-22290.84,-29751.84,0.0,0.0,0.0,0.0,4
-14819.04,87593.175,-22288.995,-29749.41,0.0,0.0,0.0,0.0,4
-14816.835,87592.5,-22289.94,-29751.57,0.0,0.0,0.0,0.0,4
-14815.35,87591.6,-22287.015,-29749.995,0.0,0.0,0.0,0.0,4
-14818.455,87591.105,-22289.535,-29752.065,0.0,0.0,0.0,0.0,4
-14815.395,87592.23,-22284.495,-29745.765,0.0,0.0,0.0,0.0,4
-14813.955,87591.51,-22286.565,-29747.295,0.0,0.0,0.0,0.0,4
-14818.095,87589.665,-22288.86,-29750.355,0.0,0.0,0.0,0.0,4
-14817.825,87590.835,-22282.605,-29745.09,0.0,0.0,0.0,0.0,4
-14823.675,87592.365,-22281.705,-29741.265,0.0,0.0,0.0,0.0,4
-14806.62,87592.005,-22289.04,-29756.43,0.0,0.0,0.0,0.0,4
-14810.445,87589.935,-22291.965,-29758.59,0.0,0.0,0.0,0.0,4
-14815.53,87586.56,-22289.94,-29755.125,0.0,0.0,0.0,0.0,4
-14812.92,87582.195,-22279.23,-29743.155,0.0,0.0,0.0,0.0,4
-14809.05,87578.595,-22285.575,-29752.515,0.0,0.0,0.0,0.0,4
-14815.98,87578.73,-22286.25,-29748.645,0.0,0.0,0.0,0.0,4
-14816.025,87575.67,-22283.28,-29745.27,0.0,0.0,0.0,0.0,4
-14815.44,87572.295,-22295.655,-29761.38,0.0,0.0,0.0,0.0,4
-14816.52,87566.76,-22289.265,-29751.03,0.0,0.0,0.0,0.0,4
-14810.67,87561.225,-22284.18,-29750.445,0.0,0.0,0.0,0.0,4
-14803.785,87555.96,-22273.965,-29741.4,0.0,0.0,0.0,0.0,4
-14803.74,87550.605,-22272.165,-29740.14,0.0,0.0,0.0,0.0,4
-14807.88,87547.545,-22283.145,-29752.74,0.0,0.0,0.0,0.0,4
-14807.79,87545.07,-22282.875,-29749.815,0.0,0.0,0.0,0.0,4
-14804.415,87541.785,-22280.13,-29748.6,0.0,0.0,0.0,0.0,4
-14804.055,87540.12,-22275.18,-29742.435,0.0,0.0,0.0,0.0,4
-14801.895,87538.635,-22266.27,-29732.175,0.0,0.0,0.0,0.0,4
-14798.52,87538.455,-22269.33,-29737.62,0.0,0.0,0.0,0.0,4
-14797.215,87539.265,-22268.655,-29736.585,0.0,0.0,0.0,0.0,4
-14797.395,87539.175,-22266.495,-29732.67,0.0,0.0,0.0,0.0,4
-14797.89,87535.35,-22261.725,-29726.28,0.0,0.0,0.0,0.0,4
-14795.91,87534.27,-22260.69,-29728.17,0.0,0.0,0.0,0.0,4
-14791.095,87536.835,-22257.225,-29727.72,0.0,0.0,0.0,0.0,4
-14792.985,87535.98,-22264.02,-29733.03,0.0,0.0,0.0,0.0,4
-14797.44,87535.08,-22272.84,-29740.14,0.0,0.0,0.0,0.0,4
-14797.26,87534.405,-22257.09,-29722.005,0.0,0.0,0.0,0.0,4
-14787.045,87530.49,-22251.465,-29721.375,0.0,0.0,0.0,0.0,4
-14789.97,87530.625,-22259.34,-29730.465,0.0,0.0,0.0,0.0,4
-14792.94,87533.73,-22256.325,-29724.615,0.0,0.0,0.0,0.0,4
-14792.04,87535.035,-22257.495,-29727.225,0.0,0.0,0.0,0.0,4
-14789.97,87534.36,-22257.63,-29727.225,0.0,0.0,0.0,0.0,4
-14789.7,87538.05,-22257.63,-29727.54,0.0,0.0,0.0,0.0,4
-14791.095,87543.9,-22253.22,-29721.24,0.0,0.0,0.0,0.0,4
-14787.72,87548.58,-22242.15,-29707.38,0.0,0.0,0.0,0.0,4
-14791.005,87549.705,-22262.895,-29733.93,0.0,0.0,0.0,0.0,4
-14788.755,87553.125,-22261.725,-29738.34,0.0,0.0,0.0,0.0,4
-14787.945,87556.68,-22256.505,-29733.705,0.0,0.0,0.0,0.0,4
-14791.725,87561.99,-22261.59,-29738.7,0.0,0.0,0.0,0.0,4
-14789.295,87562.485,-22260.465,-29740.68,0.0,0.0,0.0,0.0,4
-14787.9,87562.485,-22262.94,-29743.605,0.0,0.0,0.0,0.0,4
-14793.39,87564.6,-22260.69,-29739.42,0.0,0.0,0.0,0.0,4
-14793.12,87567.57,-22271.94,-29756.295,0.0,0.0,0.0,0.0,4
-14796.225,87569.37,-22276.305,-29764.125,0.0,0.0,0.0,0.0,4
-14788.485,87569.1,-22263.93,-29753.505,0.0,0.0,0.0,0.0,4
-14784.975,87564.555,-22266.45,-29758.32,0.0,0.0,0.0,0.0,4
-14784.03,87565.185,-22259.835,-29749.815,0.0,0.0,0.0,0.0,4
-14784.57,87564.51,-22260.105,-29752.065,0.0,0.0,0.0,0.0,4
-14784.435,87561.63,-22259.79,-29752.965,0.0,0.0,0.0,0.0,4
-14784.3,87561.675,-22260.96,-29753.64,0.0,0.0,0.0,0.0,4
-14782.77,87563.925,-22258.935,-29753.595,0.0,0.0,0.0,0.0,4
-14781.015,87562.98,-22253.895,-29750.4,0.0,0.0,0.0,0.0,4
-14779.035,87556.275,-22252.095,-29747.475,0.0,0.0,0.0,0.0,4
-14778.63,87551.73,-22249.485,-29745.27,0.0,0.0,0.0,0.0,4
-14778.495,87551.01,-22252.32,-29750.67,0.0,0.0,0.0,0.0,4
-14777.055,87551.91,-22241.79,-29740.05,0.0,0.0,0.0,0.0,4
-14781.105,87549.21,-22253.715,-29753.19,0.0,0.0,0.0,0.0,4
-14781.24,87544.53,-22257.0,-29757.645,0.0,0.0,0.0,0.0,4
-14782.05,87539.94,-22251.735,-29753.055,0.0,0.0,0.0,0.0,4
-14780.97,87537.33,-22247.19,-29748.555,0.0,0.0,0.0,0.0,4
-14779.395,87536.16,-22238.775,-29737.26,0.0,0.0,0.0,0.0,4
-14771.97,87533.82,-22245.525,-29749.68,0.0,0.0,0.0,0.0,4
-14773.68,87530.805,-22248.99,-29754.405,0.0,0.0,0.0,0.0,4
-14781.915,87525.765,-22251.6,-29753.28,0.0,0.0,0.0,0.0,4
-14777.82,87518.205,-22244.13,-29745.855,0.0,0.0,0.0,0.0,4
-14773.86,87511.05,-22244.04,-29749.275,0.0,0.0,0.0,0.0,4
-14775.84,87507.72,-22243.725,-29750.895,0.0,0.0,0.0,0.0,4
-14772.285,87509.88,-22247.775,-29757.78,0.0,0.0,0.0,0.0,4
-14773.41,87513.03,-22239.765,-29746.62,0.0,0.0,0.0,0.0,4
-14772.555,87512.04,-22237.02,-29744.865,0.0,0.0,0.0,0.0,4
-14771.115,87505.56,-22242.06,-29752.155,0.0,0.0,0.0,0.0,4
-14771.295,87504.435,-22237.245,-29746.575,0.0,0.0,0.0,0.0,4
-14771.25,87503.805,-22235.22,-29743.74,0.0,0.0,0.0,0.0,4
-14768.19,87498.81,-22241.835,-29753.595,0.0,0.0,0.0,0.0,4
-14765.67,87494.895,-22238.145,-29750.445,0.0,0.0,0.0,0.0,4
-14768.46,87491.925,-22236.885,-29747.115,0.0,0.0,0.0,0.0,4
-14771.205,87495.93,-22241.97,-29755.08,0.0,0.0,0.0,0.0,4
-14774.94,87501.51,-22241.295,-29753.055,0.0,0.0,0.0,0.0,4
-14774.31,87505.11,-22244.49,-29755.845,0.0,0.0,0.0,0.0,4
-14773.185,87505.74,-22246.245,-29760.57,0.0,0.0,0.0,0.0,4
-14774.04,87506.19,-22246.065,-29762.145,0.0,0.0,0.0,0.0,4
-14773.68,87505.83,-22239.045,-29752.515,0.0,0.0,0.0,0.0,4
-14765.535,87507.045,-22232.115,-29747.07,0.0,0.0,0.0,0.0,4
-14762.25,87507.45,-22239.855,-29762.055,0.0,0.0,0.0,0.0,4
-14764.095,87504.93,-22242.645,-29764.665,0.0,0.0,0.0,0.0,4
-14767.245,87499.755,-22241.52,-29759.175,0.0,0.0,0.0,0.0,4
-14764.14,87496.155,-22234.905,-29750.895,0.0,0.0,0.0,0.0,4
-14760.315,87491.025,-22233.195,-29752.56,0.0,0.0,0.0,0.0,4
-14757.3,87488.01,-22231.44,-29753.055,0.0,0.0,0.0,0.0,4
-14759.325,87480.81,-22230.54,-29750.265,0.0,0.0,0.0,0.0,4
-14760.99,87470.505,-22226.58,-29742.93,0.0,0.0,0.0,0.0,4
-14757.255,87473.115,-22224.06,-29742.165,0.0,0.0,0.0,0.0,4
-14759.595,87473.025,-22231.62,-29751.57,0.0,0.0,0.0,0.0,4
-14760.855,87470.145,-22231.53,-29754.855,0.0,0.0,0.0,0.0,4
-14759.775,87467.67,-22229.73,-29753.595,0.0,0.0,0.0,0.0,4
-14767.29,87465.375,-22231.305,-29751.975,0.0,0.0,0.0,0.0,4
-14762.43,87466.455,-22228.155,-29750.49,0.0,0.0,0.0,0.0,4
-14760.765,87469.065,-22233.78,-29758.68,0.0,0.0,0.0,0.0,4
-14764.095,87469.92,-22232.925,-29758.095,0.0,0.0,0.0,0.0,4
-14763.42,87468.93,-22229.415,-29755.89,0.0,0.0,0.0,0.0,4
-14764.05,87476.085,-22233.735,-29759.355,0.0,0.0,0.0,0.0,4
-14768.145,87488.415,-22237.155,-29760.795,0.0,0.0,0.0,0.0,4
-14769.0,87497.91,-22237.74,-29760.66,0.0,0.0,0.0,0.0,4
-14767.065,87502.995,-22236.21,-29758.545,0.0,0.0,0.0,0.0,4
-14766.57,87513.345,-22234.59,-29757.195,0.0,0.0,0.0,0.0,4
-14767.515,87520.365,-22232.925,-29754.495,0.0,0.0,0.0,0.0,4
-14767.29,87525.18,-22230.18,-29750.22,0.0,0.0,0.0,0.0,4
-14770.44,87529.185,-22225.14,-29742.255,0.0,0.0,0.0,0.0,4
-14767.38,87535.395,-22225.14,-29745.54,0.0,0.0,0.0,0.0,4
-14765.985,87535.215,-22236.21,-29761.38,0.0,0.0,0.0,0.0,4
-14764.905,87534.405,-22234.23,-29758.635,0.0,0.0,0.0,0.0,4
-14762.43,87528.96,-22228.155,-29751.03,0.0,0.0,0.0,0.0,4
-14762.205,87524.19,-22225.14,-29748.105,0.0,0.0,0.0,0.0,4
-14756.67,87521.895,-22219.38,-29744.82,0.0,0.0,0.0,0.0,4
-14754.42,87517.485,-22216.005,-29741.895,0.0,0.0,0.0,0.0,4
-14755.005,87517.98,-22219.38,-29743.38,0.0,0.0,0.0,0.0,4
-14753.205,87518.97,-22201.515,-29724.57,0.0,0.0,0.0,0.0,4
-14751.855,87518.88,-22210.47,-29732.76,0.0,0.0,0.0,0.0,4
-14755.905,87518.835,-22232.97,-29755.17,0.0,0.0,0.0,0.0,4
-14750.73,87518.385,-22221.72,-29745.54,0.0,0.0,0.0,0.0,4
-14752.845,87518.07,-22215.15,-29734.965,0.0,0.0,0.0,0.0,4
-14749.605,87514.515,-22219.245,-29746.395,0.0,0.0,0.0,0.0,4
-14749.695,87511.545,-22218.75,-29746.62,0.0,0.0,0.0,0.0,4
-14744.97,87510.555,-22224.195,-29753.325,0.0,0.0,0.0,0.0,4
-14746.095,87506.82,-22216.815,-29739.645,0.0,0.0,0.0,0.0,4
-14748.66,87502.59,-22212.495,-29735.685,0.0,0.0,0.0,0.0,4
-14742.495,87500.79,-22221.54,-29752.11,0.0,0.0,0.0,0.0,4
-14745.24,87495.12,-22219.47,-29748.24,0.0,0.0,0.0,0.0,4
-14744.97,87490.53,-22217.985,-29747.16,0.0,0.0,0.0,0.0,4
-14745.24,87488.595,-22217.265,-29746.8,0.0,0.0,0.0,0.0,4
-14745.42,87486.525,-22216.455,-29747.97,0.0,0.0,0.0,0.0,4
-14744.79,87480.36,-22214.025,-29745.315,0.0,0.0,0.0,0.0,4
-14746.275,87475.185,-22218.255,-29747.07,0.0,0.0,0.0,0.0,4
-14748.39,87468.345,-22217.49,-29746.17,0.0,0.0,0.0,0.0,4
-14748.075,87463.8,-22210.47,-29736.63,0.0,0.0,0.0,0.0,4
-14745.645,87466.005,-22219.83,-29750.715,0.0,0.0,0.0,0.0,4
-14745.06,87465.78,-22213.935,-29745.315,0.0,0.0,0.0,0.0,4
-14748.795,87463.485,-22214.655,-29743.695,0.0,0.0,0.0,0.0,4
-14750.55,87462.225,-22213.665,-29740.815,0.0,0.0,0.0,0.0,4
-14741.91,87459.48,-22210.245,-29739.555,0.0,0.0,0.0,0.0,4
-14742.72,87458.355,-22212.315,-29741.4,0.0,0.0,0.0,0.0,4
-14743.44,87457.455,-22209.615,-29738.07,0.0,0.0,0.0,0.0,4
-14739.48,87459.435,-22207.77,-29738.34,0.0,0.0,0.0,0.0,4
-14740.965,87460.875,-22206.195,-29736.315,0.0,0.0,0.0,0.0,4
-14737.32,87460.785,-22198.455,-29730.555,0.0,0.0,0.0,0.0,4
-14743.755,87461.235,-22208.13,-29740.365,0.0,0.0,0.0,0.0,4
-14745.105,87460.785,-22214.34,-29744.55,0.0,0.0,0.0,0.0,4
-14739.075,87460.785,-22200.615,-29730.69,0.0,0.0,0.0,0.0,4
-14741.955,87462.045,-22203.585,-29731.455,0.0,0.0,0.0,0.0,4
-14746.635,87462.135,-22216.005,-29744.055,0.0,0.0,0.0,0.0,4
-14747.355,87460.695,-22211.055,-29737.755,0.0,0.0,0.0,0.0,4
-14737.455,87455.475,-22207.545,-29737.98,0.0,0.0,0.0,0.0,4
-14739.975,87449.985,-22214.385,-29745.585,0.0,0.0,0.0,0.0,4
-14737.545,87447.78,-22208.715,-29739.915,0.0,0.0,0.0,0.0,4
-14735.97,87446.97,-22206.645,-29736.945,0.0,0.0,0.0,0.0,4
-14739.435,87451.47,-22201.425,-29730.51,0.0,0.0,0.0,0.0,4
-14741.325,87452.82,-22215.645,-29744.19,0.0,0.0,0.0,0.0,4
-14738.805,87451.965,-22216.5,-29744.64,0.0,0.0,0.0,0.0,4
-14736.96,87452.055,-22208.76,-29739.195,0.0,0.0,0.0,0.0,4
-14736.87,87453.18,-22198.68,-29729.295,0.0,0.0,0.0,0.0,4
-14738.985,87453.045,-22213.845,-29747.61,0.0,0.0,0.0,0.0,4
-14741.28,87452.28,-22211.775,-29745.0,0.0,0.0,0.0,0.0,4
-14740.02,87453.405,-22211.325,-29743.425,0.0,0.0,0.0,0.0,4
-14739.795,87457.545,-22211.145,-29742.075,0.0,0.0,0.0,0.0,4
-14740.65,87459.75,-22214.07,-29745.63,0.0,0.0,0.0,0.0,4
-14738.265,87459.21,-22211.145,-29747.16,0.0,0.0,0.0,0.0,4
-14735.115,87460.245,-22208.805,-29742.795,0.0,0.0,0.0,0.0,4
-14732.64,87460.2,-22205.205,-29736.45,0.0,0.0,0.0,0.0,4
-14735.205,87458.085,-22197.375,-29726.19,0.0,0.0,0.0,0.0,4
-14730.345,87454.35,-22198.635,-29732.4,0.0,0.0,0.0,0.0,4
-14731.965,87450.075,-22216.86,-29753.19,0.0,0.0,0.0,0.0,4
-14725.08,87445.935,-22206.915,-29743.29,0.0,0.0,0.0,0.0,4
-14727.645,87443.28,-22206.24,-29741.085,0.0,0.0,0.0,0.0,4
-14729.31,87442.2,-22205.34,-29738.34,0.0,0.0,0.0,0.0,4
-14729.85,87444.27,-22198.5,-29730.105,0.0,0.0,0.0,0.0,4
-14731.74,87445.305,-22196.43,-29727.315,0.0,0.0,0.0,0.0,4
-14729.715,87447.015,-22206.105,-29739.42,0.0,0.0,0.0,0.0,4
-14727.6,87449.265,-22207.77,-29744.91,0.0,0.0,0.0,0.0,4
-14728.68,87450.705,-22199.355,-29733.66,0.0,0.0,0.0,0.0,4
-14728.365,87446.385,-22200.03,-29735.505,0.0,0.0,0.0,0.0,4
-14724.18,87445.845,-22198.095,-29734.74,0.0,0.0,0.0,0.0,4
-14723.28,87444.585,-22194.585,-29729.88,0.0,0.0,0.0,0.0,4
-14725.395,87444.045,-22192.695,-29725.335,0.0,0.0,0.0,0.0,4
-14721.975,87440.4,-22192.695,-29727.045,0.0,0.0,0.0,0.0,4
-14719.68,87436.125,-22189.5,-29723.67,0.0,0.0,0.0,0.0,4
-14716.665,87431.76,-22186.575,-29720.835,0.0,0.0,0.0,0.0,4
-14716.395,87427.62,-22195.305,-29732.76,0.0,0.0,0.0,0.0,4
-14717.07,87428.745,-22190.58,-29726.955,0.0,0.0,0.0,0.0,4
-14713.605,87429.6,-22188.105,-29726.1,0.0,0.0,0.0,0.0,4
-14711.445,87429.645,-22188.78,-29727.585,0.0,0.0,0.0,0.0,4
-14713.065,87430.635,-22188.6,-29725.695,0.0,0.0,0.0,0.0,4
-14711.715,87426.72,-22185.9,-29722.815,0.0,0.0,0.0,0.0,4
-14710.995,87424.605,-22186.305,-29723.085,0.0,0.0,0.0,0.0,4
-14710.77,87424.335,-22184.1,-29720.52,0.0,0.0,0.0,0.0,4
-14709.87,87422.31,-22181.805,-29718.315,0.0,0.0,0.0,0.0,4
-14710.77,87420.96,-22183.605,-29719.8,0.0,0.0,0.0,0.0,4
-14707.98,87421.68,-22178.88,-29715.525,0.0,0.0,0.0,0.0,4
-14707.305,87421.725,-22175.865,-29712.87,0.0,0.0,0.0,0.0,4
-14707.395,87418.98,-22174.38,-29713.365,0.0,0.0,0.0,0.0,4
-14713.02,87416.1,-22175.91,-29716.29,0.0,0.0,0.0,0.0,4
-14715.99,87418.665,-22191.795,-29731.5,0.0,0.0,0.0,0.0,4
-14716.665,87415.65,-22191.48,-29728.665,0.0,0.0,0.0,0.0,4
-14714.415,87413.22,-22187.655,-29729.115,0.0,0.0,0.0,0.0,4
-14708.7,87409.08,-22172.445,-29711.565,0.0,0.0,0.0,0.0,4
-14706.18,87407.55,-22186.395,-29731.05,0.0,0.0,0.0,0.0,4
-14710.32,87406.155,-22191.39,-29734.875,0.0,0.0,0.0,0.0,4
-14708.295,87404.04,-22184.505,-29727.675,0.0,0.0,0.0,0.0,4
-14705.01,87399.405,-22180.23,-29722.23,0.0,0.0,0.0,0.0,4
-14702.985,87398.415,-22177.395,-29720.34,0.0,0.0,0.0,0.0,4
-14702.355,87398.145,-22172.22,-29716.83,0.0,0.0,0.0,0.0,4
-14700.69,87397.83,-22173.21,-29717.415,0.0,0.0,0.0,0.0,4
-14704.02,87393.735,-22178.835,-29723.715,0.0,0.0,0.0,0.0,4
-14701.5,87393.285,-22176.09,-29721.195,0.0,0.0,0.0,0.0,4
-14704.92,87395.22,-22173.48,-29716.02,0.0,0.0,0.0,0.0,4
-14700.555,87399.135,-22173.975,-29718.405,0.0,0.0,0.0,0.0,4
-14697.945,87402.645,-22182.93,-29731.86,0.0,0.0,0.0,0.0,4
-14702.445,87401.835,-22178.43,-29724.795,0.0,0.0,0.0,0.0,4
-14701.275,87399.81,-22187.07,-29733.435,0.0,0.0,0.0,0.0,4
-14702.58,87399.36,-22182.075,-29726.595,0.0,0.0,0.0,0.0,4
-14699.745,87396.93,-22171.455,-29714.805,0.0,0.0,0.0,0.0,4
-14695.74,87395.445,-22169.115,-29712.465,0.0,0.0,0.0,0.0,4
-14697.045,87391.8,-22166.775,-29710.215,0.0,0.0,0.0,0.0,4
-14697.45,87388.695,-22173.705,-29720.295,0.0,0.0,0.0,0.0,4
-14699.07,87386.76,-22182.66,-29729.43,0.0,0.0,0.0,0.0,4
-14697.45,87385.545,-22176.855,-29725.515,0.0,0.0,0.0,0.0,4
-14700.78,87385.635,-22177.44,-29724.165,0.0,0.0,0.0,0.0,4
-14700.69,87384.51,-22173.255,-29719.98,0.0,0.0,0.0,0.0,4
-14690.655,87378.345,-22170.96,-29721.645,0.0,0.0,0.0,0.0,4
-14692.005,87373.485,-22168.62,-29717.235,0.0,0.0,0.0,0.0,4
-14696.19,87371.235,-22173.435,-29722.77,0.0,0.0,0.0,0.0,4
-14698.89,87369.66,-22174.65,-29724.84,0.0,0.0,0.0,0.0,4
-14700.06,87366.06,-22175.685,-29724.165,0.0,0.0,0.0,0.0,4
-14698.035,87364.8,-22175.685,-29724.345,0.0,0.0,0.0,0.0,4
-14697.135,87364.485,-22173.48,-29722.095,0.0,0.0,0.0,0.0,4
-14697.09,87361.47,-22171.41,-29719.35,0.0,0.0,0.0,0.0,4
-14695.965,87359.13,-22181.265,-29730.645,0.0,0.0,0.0,0.0,4
-14696.325,87360.525,-22172.67,-29719.89,0.0,0.0,0.0,0.0,4
-14699.43,87361.695,-22174.29,-29720.295,0.0,0.0,0.0,0.0,4
-14693.94,87361.335,-22178.115,-29729.295,0.0,0.0,0.0,0.0,4
-14694.84,87358.59,-22178.385,-29729.43,0.0,0.0,0.0,0.0,4
-14695.74,87357.15,-22176.225,-29727.54,0.0,0.0,0.0,0.0,4
-14696.145,87357.78,-22174.335,-29724.165,0.0,0.0,0.0,0.0,4
-14693.895,87356.655,-22175.28,-29725.065,0.0,0.0,0.0,0.0,4
-14692.545,87354.99,-22175.055,-29725.245,0.0,0.0,0.0,0.0,4
-14690.925,87355.035,-22173.525,-29723.625,0.0,0.0,0.0,0.0,4
-14691.96,87356.88,-22173.12,-29722.5,0.0,0.0,0.0,0.0,4
-14689.89,87357.555,-22167.72,-29717.46,0.0,0.0,0.0,0.0,4
-14687.775,87356.205,-22163.13,-29713.995,0.0,0.0,0.0,0.0,4
-14689.755,87354.675,-22165.515,-29717.64,0.0,0.0,0.0,0.0,4
-14689.44,87352.695,-22161.465,-29711.79,0.0,0.0,0.0,0.0,4
-14693.085,87353.1,-22164.975,-29713.005,0.0,0.0,0.0,0.0,4
-14688.855,87350.76,-22170.42,-29721.51,0.0,0.0,0.0,0.0,4
-14686.605,87347.7,-22163.31,-29711.295,0.0,0.0,0.0,0.0,4
-14684.715,87345.18,-22168.98,-29718.675,0.0,0.0,0.0,0.0,4
-14687.055,87341.94,-22172.76,-29722.95,0.0,0.0,0.0,0.0,4
-14682.825,87336.405,-22165.965,-29718.135,0.0,0.0,0.0,0.0,4
-14686.695,87332.535,-22162.725,-29714.94,0.0,0.0,0.0,0.0,4
-14689.8,87332.895,-22173.885,-29724.03,0.0,0.0,0.0,0.0,4
-14687.64,87334.83,-22172.49,-29723.355,0.0,0.0,0.0,0.0,4
-14689.17,87333.255,-22172.22,-29724.075,0.0,0.0,0.0,0.0,4
-14689.98,87328.71,-22171.275,-29722.77,0.0,0.0,0.0,0.0,4
-14690.07,87320.745,-22169.43,-29721.735,0.0,0.0,0.0,0.0,4
-14692.95,87315.165,-22165.425,-29719.035,0.0,0.0,0.0,0.0,4
-14686.425,87310.98,-22163.985,-29717.82,0.0,0.0,0.0,0.0,4
-14682.015,87304.68,-22166.775,-29720.16,0.0,0.0,0.0,0.0,4
-14683.815,87297.12,-22161.24,-29712.825,0.0,0.0,0.0,0.0,4
-14687.1,87293.43,-22153.41,-29701.98,0.0,0.0,0.0,0.0,4
-14688.27,87294.645,-22162.905,-29712.15,0.0,0.0,0.0,0.0,4
-14679.63,87298.155,-22174.245,-29734.65,0.0,0.0,0.0,0.0,4
-14683.005,87301.89,-22166.685,-29725.47,0.0,0.0,0.0,0.0,4
-14684.445,87305.715,-22174.245,-29729.79,0.0,0.0,0.0,0.0,4
-14682.87,87309.18,-22167.99,-29724.345,0.0,0.0,0.0,0.0,4
-14685.795,87315.03,-22164.57,-29717.595,0.0,0.0,0.0,0.0,4
-14682.15,87319.575,-22165.965,-29723.715,0.0,0.0,0.0,0.0,4
-14682.42,87322.23,-22158.63,-29714.13,0.0,0.0,0.0,0.0,4
-14677.02,87330.375,-22164.39,-29723.715,0.0,0.0,0.0,0.0,4
-14679.225,87335.685,-22168.53,-29727.99,0.0,0.0,0.0,0.0,4
-14686.83,87336.495,-22166.325,-29722.32,0.0,0.0,0.0,0.0,4
-14685.975,87338.97,-22167.36,-29722.59,0.0,0.0,0.0,0.0,4
-14685.255,87338.97,-22167.81,-29723.22,0.0,0.0,0.0,0.0,4
-14686.02,87339.285,-22159.17,-29715.525,0.0,0.0,0.0,0.0,4
-14683.32,87336.135,-22160.52,-29717.595,0.0,0.0,0.0,0.0,4
-14685.795,87335.055,-22162.545,-29716.83,0.0,0.0,0.0,0.0,4
-14687.145,87339.51,-22160.88,-29713.41,0.0,0.0,0.0,0.0,4
-14680.665,87342.48,-22159.17,-29713.41,0.0,0.0,0.0,0.0,4
-14681.52,87344.325,-22162.455,-29720.115,0.0,0.0,0.0,0.0,4
-14686.74,87348.06,-22164.705,-29721.375,0.0,0.0,0.0,0.0,4
-14687.415,87352.515,-22166.955,-29722.995,0.0,0.0,0.0,0.0,4
-14684.535,87356.205,-22166.19,-29721.87,0.0,0.0,0.0,0.0,4
-14684.625,87358.86,-22166.28,-29721.105,0.0,0.0,0.0,0.0,4
-14683.95,87358.95,-22164.93,-29718.72,0.0,0.0,0.0,0.0,4
-14684.49,87354.72,-22161.555,-29716.47,0.0,0.0,0.0,0.0,4
-14686.425,87350.4,-22162.905,-29718.45,0.0,0.0,0.0,0.0,4
-14684.22,87347.295,-22163.355,-29718.855,0.0,0.0,0.0,0.0,4
-14680.395,87343.245,-22161.465,-29717.415,0.0,0.0,0.0,0.0,4
-14682.96,87337.395,-22158.0,-29713.77,0.0,0.0,0.0,0.0,4
-14682.105,87333.345,-22152.375,-29709.0,0.0,0.0,0.0,0.0,4
-14674.77,87329.61,-22155.525,-29714.94,0.0,0.0,0.0,0.0,4
-14672.52,87327.765,-22159.08,-29724.345,0.0,0.0,0.0,0.0,4
-14679.18,87324.21,-22165.425,-29727.135,0.0,0.0,0.0,0.0,4
-14675.895,87323.49,-22155.75,-29716.965,0.0,0.0,0.0,0.0,4
-14673.6,87318.72,-22149.045,-29710.08,0.0,0.0,0.0,0.0,4
-14676.66,87313.905,-22157.595,-29717.37,0.0,0.0,0.0,0.0,4
-14672.97,87314.175,-22154.04,-29715.21,0.0,0.0,0.0,0.0,4
-14676.615,87312.105,-22159.08,-29719.35,0.0,0.0,0.0,0.0,4
-14678.145,87311.745,-22162.005,-29721.33,0.0,0.0,0.0,0.0,4
-14678.505,87312.42,-22157.01,-29716.83,0.0,0.0,0.0,0.0,4
-14677.695,87311.97,-22159.665,-29720.655,0.0,0.0,0.0,0.0,4
-14676.12,87310.71,-22162.23,-29724.615,0.0,0.0,0.0,0.0,4
-14673.645,87306.57,-22151.655,-29714.355,0.0,0.0,0.0,0.0,4
-14672.25,87306.03,-22152.15,-29717.055,0.0,0.0,0.0,0.0,4
-14674.545,87306.93,-22153.05,-29717.28,0.0,0.0,0.0,0.0,4
-14674.32,87307.2,-22151.61,-29715.435,0.0,0.0,0.0,0.0,4
-14671.35,87302.745,-22150.26,-29713.545,0.0,0.0,0.0,0.0,4
-14670.0,87297.3,-22151.295,-29714.58,0.0,0.0,0.0,0.0,4
-14672.07,87298.245,-22150.755,-29714.175,0.0,0.0,0.0,0.0,4
-14669.1,87299.55,-22148.865,-29713.59,0.0,0.0,0.0,0.0,4
-14670.54,87298.695,-22155.93,-29719.305,0.0,0.0,0.0,0.0,4
-14670.405,87298.515,-22141.665,-29697.21,0.0,0.0,0.0,0.0,4
-14659.875,87297.435,-22137.705,-29704.5,0.0,0.0,0.0,0.0,4
-14661.675,87295.5,-22144.275,-29714.355,0.0,0.0,0.0,0.0,4
-14661.18,87288.57,-22152.915,-29721.375,0.0,0.0,0.0,0.0,4
-14657.94,87283.98,-22146.075,-29716.83,0.0,0.0,0.0,0.0,4
-14664.42,87281.145,-22149.09,-29715.75,0.0,0.0,0.0,0.0,4
-14661.405,87278.58,-22145.265,-29712.24,0.0,0.0,0.0,0.0,4
-14659.29,87278.895,-22145.13,-29712.51,0.0,0.0,0.0,0.0,4
-14659.02,87279.48,-22142.43,-29710.62,0.0,0.0,0.0,0.0,4
-14660.055,87276.105,-22141.53,-29709.18,0.0,0.0,0.0,0.0,4
-14653.8,87273.225,-22137.48,-29706.795,0.0,0.0,0.0,0.0,4
-14654.205,87272.64,-22140.765,-29710.215,0.0,0.0,0.0,0.0,4
-14657.265,87274.08,-22138.335,-29705.805,0.0,0.0,0.0,0.0,4
-14657.13,87277.905,-22134.285,-29702.43,0.0,0.0,0.0,0.0,4
-14656.185,87279.885,-22132.44,-29700.63,0.0,0.0,0.0,0.0,4
-14656.275,87280.38,-22134.51,-29702.655,0.0,0.0,0.0,0.0,4
-14658.885,87278.895,-22137.3,-29705.445,0.0,0.0,0.0,0.0,4
-14658.48,87276.6,-22136.895,-29705.67,0.0,0.0,0.0,0.0,4
-14660.505,87276.06,-22139.37,-29707.11,0.0,0.0,0.0,0.0,4
-14661.945,87277.23,-22142.295,-29707.29,0.0,0.0,0.0,0.0,4
-14660.82,87279.75,-22138.155,-29703.465,0.0,0.0,0.0,0.0,4
-14662.44,87280.56,-22141.62,-29706.885,0.0,0.0,0.0,0.0,4
-14661.0,87281.73,-22147.29,-29714.715,0.0,0.0,0.0,0.0,4
-14659.065,87280.83,-22146.795,-29714.535,0.0,0.0,0.0,0.0,4
-14655.465,87281.28,-22136.04,-29705.985,0.0,0.0,0.0,0.0,4
-14655.33,87282.765,-22137.975,-29708.505,0.0,0.0,0.0,0.0,4
-14656.77,87283.62,-22137.615,-29707.11,0.0,0.0,0.0,0.0,4
-14653.575,87276.42,-22131.495,-29700.855,0.0,0.0,0.0,0.0,4
-14654.43,87267.51,-22129.425,-29698.335,0.0,0.0,0.0,0.0,4
-14653.755,87273.27,-22127.445,-29694.87,0.0,0.0,0.0,0.0,4
-14652.135,87275.61,-22137.84,-29708.1,0.0,0.0,0.0,0.0,4
-14651.19,87276.105,-22135.095,-29703.915,0.0,0.0,0.0,0.0,4
-14648.76,87278.76,-22130.865,-29696.76,0.0,0.0,0.0,0.0,4
-14647.095,87280.2,-22132.845,-29700.09,0.0,0.0,0.0,0.0,4
-14651.73,87280.785,-22134.69,-29698.47,0.0,0.0,0.0,0.0,4
-14651.82,87278.535,-22135.725,-29700.63,0.0,0.0,0.0,0.0,4
-14649.03,87275.61,-22125.555,-29691.09,0.0,0.0,0.0,0.0,4
-14649.57,87274.17,-22131.0,-29697.255,0.0,0.0,0.0,0.0,4
-14653.53,87275.205,-22134.78,-29699.055,0.0,0.0,0.0,0.0,4
-14653.935,87274.35,-22132.08,-29696.49,0.0,0.0,0.0,0.0,4
-14656.59,87274.62,-22138.83,-29704.095,0.0,0.0,0.0,0.0,4
-14658.255,87280.83,-22129.02,-29689.335,0.0,0.0,0.0,0.0,4
-14638.005,87286.41,-22132.665,-29705.58,0.0,0.0,0.0,0.0,4
-14641.56,87289.425,-22131.54,-29707.74,0.0,0.0,0.0,0.0,4
-14655.015,87291.09,-22147.245,-29720.745,0.0,0.0,0.0,0.0,4
-14652.18,87295.23,-22139.415,-29711.7,0.0,0.0,0.0,0.0,4
-14653.53,87307.02,-22143.33,-29715.03,0.0,0.0,0.0,0.0,4
-14652.63,87313.725,-22140.225,-29712.375,0.0,0.0,0.0,0.0,4
-14650.02,87314.625,-22135.815,-29707.875,0.0,0.0,0.0,0.0,4
-14647.14,87314.58,-22130.955,-29702.16,0.0,0.0,0.0,0.0,4
-14645.43,87313.86,-22129.02,-29699.685,0.0,0.0,0.0,0.0,4
-14643.405,87307.92,-22125.6,-29693.97,0.0,0.0,0.0,0.0,4
-14642.415,87302.52,-22124.745,-29693.295,0.0,0.0,0.0,0.0,4
-14640.12,87301.035,-22126.32,-29694.195,0.0,0.0,0.0,0.0,4
-14642.325,87301.17,-22126.32,-29694.42,0.0,0.0,0.0,0.0,4
-14642.865,87298.515,-22127.805,-29698.02,0.0,0.0,0.0,0.0,4
-14645.25,87296.13,-22126.995,-29697.12,0.0,0.0,0.0,0.0,4
-14647.68,87292.575,-22130.955,-29699.775,0.0,0.0,0.0,0.0,4
-14643.9,87290.37,-22135.32,-29706.345,0.0,0.0,0.0,0.0,4
-14643.405,87286.32,-22129.695,-29699.145,0.0,0.0,0.0,0.0,4
-14642.595,87285.15,-22127.04,-29696.67,0.0,0.0,0.0,0.0,4
-14642.775,87285.825,-22126.68,-29697.21,0.0,0.0,0.0,0.0,4
-14641.155,87287.985,-22121.145,-29692.62,0.0,0.0,0.0,0.0,4
-14642.37,87287.13,-22119.525,-29689.965,0.0,0.0,0.0,0.0,4
-14640.12,87286.275,-22118.67,-29687.22,0.0,0.0,0.0,0.0,4
-14638.275,87282.405,-22119.705,-29689.515,0.0,0.0,0.0,0.0,4
-14639.22,87279.255,-22114.17,-29682.315,0.0,0.0,0.0,0.0,4
-14642.685,87283.035,-22128.165,-29697.885,0.0,0.0,0.0,0.0,4
-14647.41,87287.13,-22133.7,-29702.07,0.0,0.0,0.0,0.0,4
-14643.72,87287.58,-22129.47,-29698.83,0.0,0.0,0.0,0.0,4
-14638.455,87287.895,-22128.165,-29700.315,0.0,0.0,0.0,0.0,4
-14634.495,87287.715,-22126.545,-29698.605,0.0,0.0,0.0,0.0,4
-14636.205,87289.155,-22123.53,-29696.715,0.0,0.0,0.0,0.0,4
-14640.345,87290.325,-22119.705,-29692.755,0.0,0.0,0.0,0.0,4
-14641.92,87291.18,-22127.445,-29700.27,0.0,0.0,0.0,0.0,4
-14639.805,87288.03,-22122.675,-29695.95,0.0,0.0,0.0,0.0,4
-14637.645,87285.78,-22118.895,-29691.54,0.0,0.0,0.0,0.0,4
-14638.455,87287.13,-22116.555,-29688.165,0.0,0.0,0.0,0.0,4
-14641.83,87289.875,-22118.895,-29689.38,0.0,0.0,0.0,0.0,4
-14648.715,87287.985,-22125.69,-29693.475,0.0,0.0,0.0,0.0,4
-14640.3,87288.66,-22123.08,-29696.13,0.0,0.0,0.0,0.0,4
-14638.905,87290.28,-22123.575,-29697.39,0.0,0.0,0.0,0.0,4
-14648.31,87291.72,-22127.265,-29695.635,0.0,0.0,0.0,0.0,4
-14646.285,87295.365,-22125.465,-29696.13,0.0,0.0,0.0,0.0,4
-14638.77,87299.91,-22124.79,-29694.555,0.0,0.0,0.0,0.0,4
-14638.635,87300.585,-22124.07,-29691.945,0.0,0.0,0.0,0.0,4
-14633.73,87300.09,-22124.88,-29699.865,0.0,0.0,0.0,0.0,4
-14632.965,87301.305,-22121.37,-29696.085,0.0,0.0,0.0,0.0,4
-14631.075,87303.33,-22118.715,-29693.43,0.0,0.0,0.0,0.0,4
-14627.61,87305.94,-22112.82,-29686.68,0.0,0.0,0.0,0.0,4
-14622.12,87307.65,-22105.755,-29679.12,0.0,0.0,0.0,0.0,4
-14626.035,87304.95,-22116.105,-29689.155,0.0,0.0,0.0,0.0,4
-14629.365,87304.635,-22114.44,-29685.465,0.0,0.0,0.0,0.0,4
-14633.505,87303.87,-22121.955,-29692.71,0.0,0.0,0.0,0.0,4
-14636.745,87304.455,-22124.835,-29694.735,0.0,0.0,0.0,0.0,4
-14634.09,87306.165,-22118.805,-29690.55,0.0,0.0,0.0,0.0,4
-14630.805,87303.96,-22119.21,-29690.055,0.0,0.0,0.0,0.0,4
-14632.425,87304.365,-22123.755,-29693.925,0.0,0.0,0.0,0.0,4
-14632.515,87305.355,-22122.63,-29691.495,0.0,0.0,0.0,0.0,4
-14629.32,87300.945,-22117.95,-29685.915,0.0,0.0,0.0,0.0,4
-14630.805,87298.155,-22118.04,-29688.12,0.0,0.0,0.0,0.0,4
-14632.605,87298.785,-22121.64,-29693.34,0.0,0.0,0.0,0.0,4
-14633.82,87299.145,-22120.065,-29689.83,0.0,0.0,0.0,0.0,4
-14637.24,87297.345,-22110.21,-29674.395,0.0,0.0,0.0,0.0,4
-14630.58,87294.645,-22117.365,-29688.57,0.0,0.0,0.0,0.0,4
-14629.725,87290.37,-22129.245,-29704.725,0.0,0.0,0.0,0.0,4
-14635.35,87287.445,-22125.735,-29698.335,0.0,0.0,0.0,0.0,4
-14633.055,87290.01,-22114.395,-29687.445,0.0,0.0,0.0,0.0,4
-14631.57,87285.465,-22124.655,-29701.53,0.0,0.0,0.0,0.0,4
-14629.905,87283.71,-22119.255,-29694.825,0.0,0.0,0.0,0.0,4
-14628.915,87283.755,-22116.105,-29689.695,0.0,0.0,0.0,0.0,4
-14635.08,87289.47,-22123.125,-29695.905,0.0,0.0,0.0,0.0,4
-14635.305,87292.26,-22123.26,-29696.67,0.0,0.0,0.0,0.0,4
-14634.405,87291.855,-22120.515,-29694.33,0.0,0.0,0.0,0.0,4
-14634.63,87295.5,-22120.875,-29696.085,0.0,0.0,0.0,0.0,4
-14632.2,87296.355,-22107.6,-29681.55,0.0,0.0,0.0,0.0,4
-14628.735,87294.06,-22113.99,-29691.045,0.0,0.0,0.0,0.0,4
-14634.585,87294.285,-22122.72,-29698.47,0.0,0.0,0.0,0.0,4
-14634.855,87298.245,-22120.155,-29694.285,0.0,0.0,0.0,0.0,4
-14633.73,87302.61,-22113.63,-29686.86,0.0,0.0,0.0,0.0,4
-14628.24,87307.245,-22118.67,-29693.88,0.0,0.0,0.0,0.0,4
-14631.345,87306.84,-22119.615,-29693.025,0.0,0.0,0.0,0.0,4
-14628.465,87305.805,-22114.44,-29688.12,0.0,0.0,0.0,0.0,4
-14628.195,87303.285,-22110.165,-29681.055,0.0,0.0,0.0,0.0,4
-14629.32,87301.17,-22110.84,-29680.92,0.0,0.0,0.0,0.0,4
-14625.18,87300.045,-22110.12,-29681.01,0.0,0.0,0.0,0.0,4
-14625.27,87298.245,-22113.9,-29685.285,0.0,0.0,0.0,0.0,4
-14626.98,87297.57,-22119.795,-29692.305,0.0,0.0,0.0,0.0,4
-14631.795,87297.93,-22115.295,-29683.17,0.0,0.0,0.0,0.0,4
-14628.375,87295.635,-22106.43,-29672.775,0.0,0.0,0.0,0.0,4
-14626.17,87294.15,-22106.97,-29677.455,0.0,0.0,0.0,0.0,4
-14627.34,87295.32,-22116.015,-29687.49,0.0,0.0,0.0,0.0,4
-14629.095,87296.895,-22115.115,-29684.34,0.0,0.0,0.0,0.0,4
-14626.44,87294.51,-22112.505,-29684.07,0.0,0.0,0.0,0.0,4
-14628.87,87292.035,-22114.71,-29685.645,0.0,0.0,0.0,0.0,4
-14629.41,87288.705,-22114.44,-29683.665,0.0,0.0,0.0,0.0,4
-14631.255,87286.995,-22114.62,-29682.54,0.0,0.0,0.0,0.0,4
-14632.92,87291.0,-22114.485,-29680.965,0.0,0.0,0.0,0.0,4
-14630.895,87294.6,-22113.36,-29681.055,0.0,0.0,0.0,0.0,4
-14632.02,87292.53,-22123.755,-29690.73,0.0,0.0,0.0,0.0,4
-14630.94,87293.07,-22124.295,-29693.925,0.0,0.0,0.0,0.0,4
-14633.865,87294.78,-22116.15,-29681.82,0.0,0.0,0.0,0.0,4
-14627.61,87297.93,-22110.795,-29681.505,0.0,0.0,0.0,0.0,4
-14630.13,87297.705,-22122.675,-29695.725,0.0,0.0,0.0,0.0,4
-14635.305,87298.38,-22123.395,-29691.765,0.0,0.0,0.0,0.0,4
-14630.49,87302.88,-22113.765,-29677.005,0.0,0.0,0.0,0.0,4
-14630.22,87302.745,-22122.315,-29687.805,0.0,0.0,0.0,0.0,4
-14634.18,87303.87,-22131.45,-29702.07,0.0,0.0,0.0,0.0,4
-14625.675,87309.99,-22112.865,-29688.57,0.0,0.0,0.0,0.0,4
-14627.565,87317.235,-22111.38,-29684.385,0.0,0.0,0.0,0.0,4
-14630.22,87313.59,-22116.375,-29683.17,0.0,0.0,0.0,0.0,4
-14649.93,87301.89,-22155.615,-29698.29,0.0,0.0,0.0,0.0,4
-14680.08,87297.705,-22180.5,-29703.015,0.0,0.0,0.0,0.0,4
-14671.395,87297.885,-22162.815,-29701.98,0.0,0.0,0.0,0.0,4
-14613.66,87297.435,-22085.505,-29676.015,0.0,0.0,0.0,0.0,4
-14604.39,87297.975,-22093.74,-29671.965,0.0,0.0,0.0,0.0,4
-14608.89,87297.75,-22096.395,-29664.72,0.0,0.0,0.0,0.0,4
-14618.07,87297.075,-22107.555,-29663.28,0.0,0.0,0.0,0.0,4
-14618.475,87298.155,-22101.165,-29670.165,0.0,0.0,0.0,0.0,4
-14611.68,87296.4,-22097.52,-29683.305,0.0,0.0,0.0,0.0,4
-14606.145,87297.165,-22093.74,-29686.68,0.0,0.0,0.0,0.0,4
-14608.395,87294.78,-22089.42,-29672.865,0.0,0.0,0.0,0.0,4
-14619.555,87292.845,-22107.645,-29682.63,0.0,0.0,0.0,0.0,4
-14635.53,87292.8,-22123.395,-29686.68,0.0,0.0,0.0,0.0,4
-14649.165,87293.835,-22135.095,-29690.415,0.0,0.0,0.0,0.0,4
-14643.765,87292.53,-22123.395,-29687.805,0.0,0.0,0.0,0.0,4
-14612.85,87291.855,-22089.87,-29674.89,0.0,0.0,0.0,0.0,4
-14613.03,87294.285,-22102.245,-29680.065,0.0,0.0,0.0,0.0,4
-14621.04,87297.93,-22116.915,-29690.685,0.0,0.0,0.0,0.0,4
-14627.655,87300.585,-22120.74,-29695.725,0.0,0.0,0.0,0.0,4
-14637.42,87301.62,-22115.52,-29682.855,0.0,0.0,0.0,0.0,4
-14650.695,87303.105,-22130.055,-29681.865,0.0,0.0,0.0,0.0,4
-14653.08,87305.58,-22129.965,-29689.965,0.0,0.0,0.0,0.0,4
-14645.565,87309.495,-22135.14,-29692.35,0.0,0.0,0.0,0.0,4
-14694.165,87310.125,-22205.655,-29706.84,0.0,0.0,0.0,0.0,4
-14719.365,87308.28,-22215.51,-29715.93,0.0,0.0,0.0,0.0,4
-14641.695,87311.385,-22082.445,-29677.77,0.0,0.0,0.0,0.0,4
-14542.965,87323.085,-22018.095,-29660.805,0.0,0.0,0.0,0.0,4
-14567.58,87330.285,-22072.725,-29677.365,0.0,0.0,0.0,0.0,4
-14612.985,87331.32,-22103.37,-29683.755,0.0,0.0,0.0,0.0,4
-14631.075,87333.165,-22111.56,-29688.03,0.0,0.0,0.0,0.0,4
-14634.855,87332.85,-22114.89,-29681.64,0.0,0.0,0.0,0.0,4
-14654.745,87332.4,-22141.845,-29698.02,0.0,0.0,0.0,0.0,4
-14650.515,87334.92,-22131.54,-29699.37,0.0,0.0,0.0,0.0,4
-14623.335,87339.735,-22105.125,-29689.38,0.0,0.0,0.0,0.0,4
-14612.76,87345.135,-22112.235,-29691.72,0.0,0.0,0.0,0.0,4
-14625.045,87345.0,-22113.27,-29685.24,0.0,0.0,0.0,0.0,4
-14636.205,87343.56,-22131.54,-29699.19,0.0,0.0,0.0,0.0,4
-14633.73,87345.855,-22131.63,-29707.38,0.0,0.0,0.0,0.0,4
-14620.14,87346.8,-22109.895,-29695.095,0.0,0.0,0.0,0.0,4
-14645.655,87343.02,-22141.935,-29700.855,0.0,0.0,0.0,0.0,4
-14681.745,87339.15,-22149.0,-29684.655,0.0,0.0,0.0,0.0,4
-14677.29,87338.43,-22134.78,-29673.63,0.0,0.0,0.0,0.0,4
-14605.47,87339.915,-22084.155,-29671.29,0.0,0.0,0.0,0.0,4
-14583.915,87338.7,-22077.36,-29665.395,0.0,0.0,0.0,0.0,4
-14589.945,87333.795,-22084.875,-29661.255,0.0,0.0,0.0,0.0,4
-14595.975,87328.89,-22083.705,-29655.765,0.0,0.0,0.0,0.0,4
-14609.295,87327.585,-22096.44,-29664.945,0.0,0.0,0.0,0.0,4
-14617.935,87329.61,-22101.885,-29669.805,0.0,0.0,0.0,0.0,4
-14629.005,87328.755,-22115.25,-29679.84,0.0,0.0,0.0,0.0,4
-14633.325,87325.83,-22123.62,-29685.915,0.0,0.0,0.0,0.0,4
-14638.005,87321.6,-22132.17,-29689.515,0.0,0.0,0.0,0.0,4
-14652.18,87319.845,-22140.855,-29689.83,0.0,0.0,0.0,0.0,4
-14653.89,87319.89,-22138.695,-29689.065,0.0,0.0,0.0,0.0,4
-14634.765,87320.7,-22112.955,-29679.21,0.0,0.0,0.0,0.0,4
-14621.445,87318.99,-22102.38,-29673.045,0.0,0.0,0.0,0.0,4
-14622.705,87315.885,-22103.1,-29666.7,0.0,0.0,0.0,0.0,4
-14626.17,87313.725,-22106.565,-29671.11,0.0,0.0,0.0,0.0,4
-14622.84,87311.79,-22113.72,-29685.915,0.0,0.0,0.0,0.0,4
-14634.855,87309.765,-22121.865,-29686.95,0.0,0.0,0.0,0.0,4
-14640.975,87311.16,-22131.63,-29695.995,0.0,0.0,0.0,0.0,4
-14645.79,87313.41,-22137.255,-29699.19,0.0,0.0,0.0,0.0,4
-14634.045,87316.74,-22120.74,-29687.85,0.0,0.0,0.0,0.0,4
-14633.325,87320.655,-22117.23,-29681.955,0.0,0.0,0.0,0.0,4
-14628.465,87325.245,-22109.4,-29682.045,0.0,0.0,0.0,0.0,4
-14628.555,87323.715,-22120.92,-29690.415,0.0,0.0,0.0,0.0,4
-14631.3,87321.51,-22116.87,-29682.585,0.0,0.0,0.0,0.0,4
-14638.455,87322.95,-22124.97,-29686.86,0.0,0.0,0.0,0.0,4
-14649.885,87327.72,-22127.4,-29682.405,0.0,0.0,0.0,0.0,4
-14661.495,87331.635,-22138.065,-29690.415,0.0,0.0,0.0,0.0,4
-14659.83,87335.235,-22145.67,-29704.005,0.0,0.0,0.0,0.0,4
-14633.235,87336.09,-22112.73,-29681.73,0.0,0.0,0.0,0.0,4
-14601.015,87338.88,-22094.01,-29674.935,0.0,0.0,0.0,0.0,4
-14626.26,87340.905,-22118.13,-29684.16,0.0,0.0,0.0,0.0,4
-14648.04,87343.245,-22136.31,-29683.35,0.0,0.0,0.0,0.0,4
-14639.04,87344.91,-22123.035,-29674.62,0.0,0.0,0.0,0.0,4
-14607.45,87347.07,-22093.695,-29672.145,0.0,0.0,0.0,0.0,4
-14601.015,87350.58,-22095.27,-29674.485,0.0,0.0,0.0,0.0,4
-14604.615,87350.805,-22099.77,-29678.895,0.0,0.0,0.0,0.0,4
-14615.64,87348.06,-22112.865,-29678.085,0.0,0.0,0.0,0.0,4
-14630.805,87344.055,-22119.21,-29680.47,0.0,0.0,0.0,0.0,4
-14632.2,87340.545,-22114.44,-29679.345,0.0,0.0,0.0,0.0,4
-14615.235,87342.03,-22108.5,-29678.805,0.0,0.0,0.0,0.0,4
-14613.57,87347.07,-22104.0,-29672.46,0.0,0.0,0.0,0.0,4
-14616.405,87347.925,-22115.25,-29686.14,0.0,0.0,0.0,0.0,4
-14617.44,87344.055,-22109.895,-29677.725,0.0,0.0,0.0,0.0,4
-14622.075,87341.13,-22114.305,-29681.19,0.0,0.0,0.0,0.0,4
-14630.085,87338.295,-22116.24,-29680.38,0.0,0.0,0.0,0.0,4
-14628.555,87333.255,-22118.67,-29683.305,0.0,0.0,0.0,0.0,4
-14626.305,87328.89,-22116.51,-29681.955,0.0,0.0,0.0,0.0,4
-14622.93,87326.685,-22109.13,-29672.1,0.0,0.0,0.0,0.0,4
-14630.13,87321.51,-22122.63,-29684.025,0.0,0.0,0.0,0.0,4
-14635.53,87317.37,-22121.28,-29681.055,0.0,0.0,0.0,0.0,4
-14620.59,87318.855,-22100.04,-29667.69,0.0,0.0,0.0,0.0,4
-14603.625,87319.845,-22088.34,-29662.83,0.0,0.0,0.0,0.0,4
-14618.745,87315.39,-22113.54,-29680.83,0.0,0.0,0.0,0.0,4
-14621.445,87311.34,-22109.22,-29674.305,0.0,0.0,0.0,0.0,4
-14616.63,87312.24,-22106.835,-29674.395,0.0,0.0,0.0,0.0,4
-14604.165,87311.025,-22094.73,-29672.955,0.0,0.0,0.0,0.0,4
-14605.065,87310.485,-22089.645,-29668.545,0.0,0.0,0.0,0.0,4
-14626.305,87312.105,-22113.855,-29676.195,0.0,0.0,0.0,0.0,4
-14638.365,87311.565,-22120.2,-29674.215,0.0,0.0,0.0,0.0,4
-14624.595,87315.165,-22093.47,-29667.33,0.0,0.0,0.0,0.0,4
-14592.42,87321.69,-22077.765,-29669.22,0.0,0.0,0.0,0.0,4
-14594.715,87325.695,-22098.645,-29679.12,0.0,0.0,0.0,0.0,4
-14606.235,87325.605,-22102.155,-29678.175,0.0,0.0,0.0,0.0,4
-14615.055,87326.01,-22114.08,-29684.7,0.0,0.0,0.0,0.0,4
-14631.39,87329.745,-22139.73,-29700.09,0.0,0.0,0.0,0.0,4
-14640.885,87334.83,-22134.06,-29693.34,0.0,0.0,0.0,0.0,4
-14618.97,87340.005,-22107.15,-29676.24,0.0,0.0,0.0,0.0,4
-14602.23,87343.74,-22087.08,-29659.005,0.0,0.0,0.0,0.0,4
-14609.565,87348.825,-22102.965,-29671.56,0.0,0.0,0.0,0.0,4
-14609.655,87354.495,-22098.465,-29661.255,0.0,0.0,0.0,0.0,4
-14605.245,87358.095,-22087.17,-29650.14,0.0,0.0,0.0,0.0,4
-14605.83,87360.48,-22100.175,-29657.52,0.0,0.0,0.0,0.0,4
-14624.055,87359.13,-22129.695,-29678.985,0.0,0.0,0.0,0.0,4
-14627.34,87355.845,-22125.465,-29682.0,0.0,0.0,0.0,0.0,4
-14594.355,87358.455,-22088.61,-29673.45,0.0,0.0,0.0,0.0,4
-14596.245,87362.01,-22103.82,-29683.8,0.0,0.0,0.0,0.0,4
-14607.72,87363.18,-22102.785,-29675.88,0.0,0.0,0.0,0.0,4
-14610.33,87365.115,-22107.06,-29681.73,0.0,0.0,0.0,0.0,4
-14615.01,87366.015,-22099.86,-29670.3,0.0,0.0,0.0,0.0,4
-14611.05,87357.78,-22102.605,-29672.595,0.0,0.0,0.0,0.0,4
-14610.87,87351.93,-22100.355,-29669.715,0.0,0.0,0.0,0.0,4
-14606.01,87349.23,-22095.765,-29665.125,0.0,0.0,0.0,0.0,4
-14601.15,87354.585,-22091.76,-29662.155,0.0,0.0,0.0,0.0,4
-14604.21,87359.625,-22087.485,-29653.29,0.0,0.0,0.0,0.0,4
-14602.905,87360.03,-22094.82,-29658.915,0.0,0.0,0.0,0.0,4
-14617.845,87358.095,-22126.14,-29690.415,0.0,0.0,0.0,0.0,4
-14629.5,87349.68,-22130.19,-29687.805,0.0,0.0,0.0,0.0,4
-14630.94,87343.965,-22124.61,-29672.055,0.0,0.0,0.0,0.0,4
-14636.475,87340.815,-22128.795,-29671.245,0.0,0.0,0.0,0.0,4
-14624.595,87340.095,-22121.505,-29674.755,0.0,0.0,0.0,0.0,4
-14641.47,87334.695,-22132.17,-29677.905,0.0,0.0,0.0,0.0,4
-14636.565,87326.055,-22112.685,-29669.4,0.0,0.0,0.0,0.0,4
-14586.795,87334.065,-22064.22,-29660.265,0.0,0.0,0.0,0.0,4
-14562.045,87338.43,-22073.76,-29670.975,0.0,0.0,0.0,0.0,4
-14585.445,87337.125,-22085.64,-29667.15,0.0,0.0,0.0,0.0,4
-14584.05,87338.79,-22070.745,-29651.04,0.0,0.0,0.0,0.0,4
-14589.945,87341.535,-22084.245,-29660.04,0.0,0.0,0.0,0.0,4
-14601.645,87341.94,-22100.535,-29667.735,0.0,0.0,0.0,0.0,4
