CH1,CH2,CH3,CH4,CH5,CH6,CH7,CH8,Target
14466.24,26459.504999999997,797.985,-10436.94,0.0,0.0,0.0,0.0,6
14740.605,25469.145,1186.11,-10097.28,0.0,0.0,0.0,0.0,6
14560.965,25460.73,954.63,-10304.37,0.0,0.0,0.0,0.0,6
13951.845,26417.07,176.57999999999998,-10989.135,0.0,0.0,0.0,0.0,6
13051.395,28081.71,-889.29,-11934.99,0.0,0.0,0.0,0.0,6
12576.915,29222.055,-1486.485,-12468.285,0.0,0.0,0.0,0.0,6
12497.895,29544.93,-1526.94,-12520.845,0.0,0.0,0.0,0.0,6
13161.06,28621.395,-737.685,-11825.64,0.0,0.0,0.0,0.0,6
14246.64,26892.495,505.26,-10706.085,0.0,0.0,0.0,0.0,6
14825.655,25502.58,1229.895,-10053.09,0.0,0.0,0.0,0.0,6
14689.71,25248.555,1097.28,-10182.105,0.0,0.0,0.0,0.0,6
14291.955,25824.555,545.76,-10660.365,0.0,0.0,0.0,0.0,6
13359.06,27436.275,-538.245,-11621.88,0.0,0.0,0.0,0.0,6
12701.025,28878.03,-1350.54,-12349.395,0.0,0.0,0.0,0.0,6
12486.195,29497.004999999997,-1581.615,-12565.35,0.0,0.0,0.0,0.0,6
12960.0,28960.92,-1033.515,-12094.155,0.0,0.0,0.0,0.0,6
14027.445,27313.875,186.3,-10994.175,0.0,0.0,0.0,0.0,6
14900.175,25557.345,1279.575,-9987.795,0.0,0.0,0.0,0.0,6
14916.285,24942.105,1351.26,-9937.215,0.0,0.0,0.0,0.0,6
14645.205,25220.07,952.56,-10285.515,0.0,0.0,0.0,0.0,6
13756.455,26664.12,-103.23,-11222.82,0.0,0.0,0.0,0.0,6
12866.67,28377.045,-1138.86,-12144.78,0.0,0.0,0.0,0.0,6
12553.695,29236.14,-1524.15,-12499.74,0.0,0.0,0.0,0.0,6
12786.84,29063.295,-1216.395,-12235.815,0.0,0.0,0.0,0.0,6
13731.21,27643.545,-108.18,-11240.145,0.0,0.0,0.0,0.0,6
14879.97,25736.445,1181.52,-10071.855,0.0,0.0,0.0,0.0,6
15189.75,24634.89,1597.005,-9704.34,0.0,0.0,0.0,0.0,6
14998.86,24636.87,1332.72,-9938.88,0.0,0.0,0.0,0.0,6
14283.675,25736.58,448.965,-10718.73,0.0,0.0,0.0,0.0,6
13252.995,27583.74,-723.78,-11767.32,0.0,0.0,0.0,0.0,6
12789.405,28772.504999999997,-1313.19,-12301.38,0.0,0.0,0.0,0.0,6
12832.47,28914.03,-1218.69,-12226.905,0.0,0.0,0.0,0.0,6
13627.53,27795.195,-278.055,-11386.755,0.0,0.0,0.0,0.0,6
14863.23,25889.67,1082.43,-10156.905,0.0,0.0,0.0,0.0,6
15498.495,24337.035,1864.98,-9445.32,0.0,0.0,0.0,0.0,6
15359.445,24065.955,1733.6699999999998,-9562.455,0.0,0.0,0.0,0.0,6
14857.785,24760.89,1083.51,-10130.22,0.0,0.0,0.0,0.0,6
13811.535,26543.385,-127.215,-11215.53,0.0,0.0,0.0,0.0,6
13104.63,28113.435,-972.045,-11976.03,0.0,0.0,0.0,0.0,6
12979.71,28617.48,-1095.57,-12096.135,0.0,0.0,0.0,0.0,6
13576.5,27861.885,-383.94,-11461.815,0.0,0.0,0.0,0.0,6
14803.83,26039.655,978.165,-10233.27,0.0,0.0,0.0,0.0,6
15832.35,24072.84,2142.81,-9170.595,0.0,0.0,0.0,0.0,6
15838.11,23458.41,2195.595,-9132.12,0.0,0.0,0.0,0.0,6
15520.77,23756.76,1778.58,-9483.165,0.0,0.0,0.0,0.0,6
14595.48,25277.4,665.865,-10482.345,0.0,0.0,0.0,0.0,6
13637.43,27149.67,-423.045,-11463.48,0.0,0.0,0.0,0.0,6
13271.22,28095.93,-790.65,-11790.54,0.0,0.0,0.0,0.0,6
13656.555,27768.06,-349.245,-11408.715,0.0,0.0,0.0,0.0,6
14794.155,26128.98,925.695,-10258.965,0.0,0.0,0.0,0.0,6
16127.19,23873.22,2371.635,-8943.93,0.0,0.0,0.0,0.0,6
16393.905,22773.195,2744.055,-8609.265,0.0,0.0,0.0,0.0,6
16216.92,22762.17,2496.555,-8819.64,0.0,0.0,0.0,0.0,6
15446.88,23918.985,1551.645,-9656.01,0.0,0.0,0.0,0.0,6
14381.28,25854.705,334.62,-10751.67,0.0,0.0,0.0,0.0,6
13781.34,27276.975,-324.585,-11346.525,0.0,0.0,0.0,0.0,6
13857.75,27457.695,-170.775,-11217.555,0.0,0.0,0.0,0.0,6
14842.215,26117.775,941.985,-10213.965,0.0,0.0,0.0,0.0,6
16293.465,23786.1,2502.495,-8788.904999999999,0.0,0.0,0.0,0.0,6
16946.415,22176.629999999997,3261.285,-8100.764999999999,0.0,0.0,0.0,0.0,6
16869.69,21882.87,3165.795,-8181.63,0.0,0.0,0.0,0.0,6
16301.43,22642.83,2457.9449999999997,-8797.994999999999,0.0,0.0,0.0,0.0,6
15234.165,24497.73,1232.505,-9903.06,0.0,0.0,0.0,0.0,6
14445.675,26219.835,338.175,-10711.8,0.0,0.0,0.0,0.0,6
14225.58,26944.83,153.81,-10885.185,0.0,0.0,0.0,0.0,6
14960.97,26082.45,977.58,-10153.53,0.0,0.0,0.0,0.0,6
16421.76,23804.235,2576.88,-8697.33,0.0,0.0,0.0,0.0,6
17477.415,21730.275,3750.345,-7625.34,0.0,0.0,0.0,0.0,6
17477.595,21142.98,3786.12,-7591.455,0.0,0.0,0.0,0.0,6
17121.105,21526.02,3299.67,-8011.755,0.0,0.0,0.0,0.0,6
16114.32,23144.4,2125.26,-9061.83,0.0,0.0,0.0,0.0,6
15128.46,25055.955,1036.125,-10038.33,0.0,0.0,0.0,0.0,6
14725.17,26134.74,640.0799999999999,-10401.03,0.0,0.0,0.0,0.0,6
15170.22,25804.485,1137.105,-9972.855,0.0,0.0,0.0,0.0,6
16496.01,23831.145,2571.5699999999997,-8675.955,0.0,0.0,0.0,0.0,6
17787.42,21486.915,4017.195,-7348.905,0.0,0.0,0.0,0.0,6
17988.03,20501.28,4307.849999999999,-7088.715,0.0,0.0,0.0,0.0,6
17775.135,20607.525,4006.395,-7345.44,0.0,0.0,0.0,0.0,6
16904.745,21906.99,2979.855,-8254.664999999999,0.0,0.0,0.0,0.0,6
15800.085,23886.54,1739.4299999999998,-9370.845,0.0,0.0,0.0,0.0,6
15218.82,25308.72,1083.735,-9976.14,0.0,0.0,0.0,0.0,6
15336.18,25552.35,1228.095,-9867.42,0.0,0.0,0.0,0.0,6
16403.355,24039.36,2457.4049999999997,-8757.81,0.0,0.0,0.0,0.0,6
17860.32,21657.555,4052.79,-7306.469999999999,0.0,0.0,0.0,0.0,6
18401.13,20221.65,4706.55,-6709.365,0.0,0.0,0.0,0.0,6
18242.145,20099.61,4501.304999999999,-6889.905,0.0,0.0,0.0,0.0,6
17561.43,21063.465,3678.615,-7611.435,0.0,0.0,0.0,0.0,6
16406.954999999998,23017.004999999997,2386.98,-8772.66,0.0,0.0,0.0,0.0,6
15612.66,24742.845,1497.735,-9580.095,0.0,0.0,0.0,0.0,6
15432.885,25427.925,1359.225,-9721.305,0.0,0.0,0.0,0.0,6
16248.735,24437.295,2276.01,-8903.475,0.0,0.0,0.0,0.0,6
17697.285,22151.25,3842.415,-7478.594999999999,0.0,0.0,0.0,0.0,6
18614.835,20239.785,4876.425,-6538.1849999999995,0.0,0.0,0.0,0.0,6
18510.345,19847.025,4802.804999999999,-6604.695,0.0,0.0,0.0,0.0,6
18056.16,20454.075,4211.235,-7121.969999999999,0.0,0.0,0.0,0.0,6
16951.86,22249.395,2958.795,-8244.494999999999,0.0,0.0,0.0,0.0,6
15979.41,24213.78,1862.685,-9235.8,0.0,0.0,0.0,0.0,6
15596.955,25302.33,1458.9,-9616.905,0.0,0.0,0.0,0.0,6
16073.235,24900.705,2019.78,-9128.385,0.0,0.0,0.0,0.0,6
17373.555,22899.87,3461.355,-7819.875,0.0,0.0,0.0,0.0,6
18595.935,20685.06,4804.38,-6595.74,0.0,0.0,0.0,0.0,6
18624.915,19934.505,4956.66,-6455.025,0.0,0.0,0.0,0.0,6
18327.105,20212.515,4553.91,-6805.3949999999995,0.0,0.0,0.0,0.0,6
17424.36,21665.07,3479.31,-7763.804999999999,0.0,0.0,0.0,0.0,6
16389.135,23649.21,2301.345,-8829.449999999999,0.0,0.0,0.0,0.0,6
15808.815,25048.89,1685.16,-9388.935,0.0,0.0,0.0,0.0,6
15905.025,25236.945,1857.195,-9255.69,0.0,0.0,0.0,0.0,6
16999.785,23707.305,3056.76,-8178.12,0.0,0.0,0.0,0.0,6
18380.34,21408.975,4553.639999999999,-6811.155,0.0,0.0,0.0,0.0,6
18755.73,20180.79,5066.505,-6343.29,0.0,0.0,0.0,0.0,6
18552.735,20196.0,4790.835,-6593.715,0.0,0.0,0.0,0.0,6
17807.355,21362.76,3867.975,-7416.764999999999,0.0,0.0,0.0,0.0,6
16618.274999999998,23424.21,2580.93,-8566.38,0.0,0.0,0.0,0.0,6
15816.915,25206.254999999997,1693.845,-9378.0,0.0,0.0,0.0,0.0,6
15641.865,25905.15,1574.505,-9494.865,0.0,0.0,0.0,0.0,6
16491.329999999998,24866.28,2536.92,-8638.065,0.0,0.0,0.0,0.0,6
17921.88,22636.17,4040.01,-7278.389999999999,0.0,0.0,0.0,0.0,6
18648.945,20935.125,4920.075,-6466.32,0.0,0.0,0.0,0.0,6
18503.955,20677.77,4774.635,-6604.83,0.0,0.0,0.0,0.0,6
17949.465,21387.6,4113.945,-7178.67,0.0,0.0,0.0,0.0,6
16867.44,23231.97,2885.04,-8276.265,0.0,0.0,0.0,0.0,6
15965.685,25174.305,1868.04,-9196.515,0.0,0.0,0.0,0.0,6
15615.09,26227.215,1517.58,-9528.705,0.0,0.0,0.0,0.0,6
16108.74,25772.31,2104.335,-9013.725,0.0,0.0,0.0,0.0,6
17406.045,23794.785,3506.805,-7757.82,0.0,0.0,0.0,0.0,6
18480.555,21747.6,4699.08,-6674.67,0.0,0.0,0.0,0.0,6
18424.755,21145.23,4752.63,-6615.63,0.0,0.0,0.0,0.0,6
18088.11,21522.6,4311.72,-7006.7699999999995,0.0,0.0,0.0,0.0,6
17130.375,23109.885,3186.855,-8009.865,0.0,0.0,0.0,0.0,6
16046.235,25200.405,1971.72,-9103.5,0.0,0.0,0.0,0.0,6
15495.57,26581.41,1388.97,-9640.215,0.0,0.0,0.0,0.0,6
15675.705,26668.305,1659.195,-9410.355,0.0,0.0,0.0,0.0,6
16814.295,25056.72,2909.79,-8289.0,0.0,0.0,0.0,0.0,6
18093.645,22816.53,4294.755,-7032.24,0.0,0.0,0.0,0.0,6
18359.82,21803.22,4642.5599999999995,-6730.29,0.0,0.0,0.0,0.0,6
18111.06,21914.73,4346.91,-6991.695,0.0,0.0,0.0,0.0,6
17311.68,23132.879999999997,3416.535,-7802.415,0.0,0.0,0.0,0.0,6
16182.765,25184.385,2145.87,-8942.984999999999,0.0,0.0,0.0,0.0,6
15437.61,26879.129999999997,1333.395,-9682.02,0.0,0.0,0.0,0.0,6
15336.675,27465.93,1277.82,-9750.195,0.0,0.0,0.0,0.0,6
16238.07,26336.565,2289.24,-8846.414999999999,0.0,0.0,0.0,0.0,6
17563.184999999998,24114.42,3738.645,-7530.795,0.0,0.0,0.0,0.0,6
18154.53,22586.085,4465.485,-6876.134999999999,0.0,0.0,0.0,0.0,6
17982.719999999998,22450.004999999997,4278.6449999999995,-7047.315,0.0,0.0,0.0,0.0,6
17433.135,23291.145,3570.165,-7669.665,0.0,0.0,0.0,0.0,6
16293.285,25274.835,2291.85,-8810.414999999999,0.0,0.0,0.0,0.0,6
15399.27,27212.805,1283.94,-9720.405,0.0,0.0,0.0,0.0,6
15109.02,28123.245,1004.895,-9986.355,0.0,0.0,0.0,0.0,6
15694.245,27537.12,1688.04,-9385.605,0.0,0.0,0.0,0.0,6
16962.795,25598.789999999997,3069.4049999999997,-8142.57,0.0,0.0,0.0,0.0,6
17866.53,23659.02,4113.8099999999995,-7190.775,0.0,0.0,0.0,0.0,6
17812.305,23215.5,4086.405,-7232.895,0.0,0.0,0.0,0.0,6
17430.704999999998,23697.18,3587.895,-7663.815,0.0,0.0,0.0,0.0,6
16354.845,25404.254999999997,2433.96,-8677.44,0.0,0.0,0.0,0.0,6
15360.66,27460.26,1271.43,-9730.215,0.0,0.0,0.0,0.0,6
14938.425,28588.004999999997,806.5799999999999,-10159.02,0.0,0.0,0.0,0.0,6
15240.285,28387.08,1202.175,-9812.79,0.0,0.0,0.0,0.0,6
16269.66,26905.995,2373.615,-8764.965,0.0,0.0,0.0,0.0,6
17390.745,24868.754999999997,3618.27,-7647.344999999999,0.0,0.0,0.0,0.0,6
17498.07,24017.985,3819.24,-7476.795,0.0,0.0,0.0,0.0,6
17249.22,24211.53,3480.5699999999997,-7777.935,0.0,0.0,0.0,0.0,6
16381.575,25607.97,2470.0499999999997,-8667.99,0.0,0.0,0.0,0.0,6
15288.75,27701.235,1217.52,-9793.53,0.0,0.0,0.0,0.0,6
14787.315,28988.91,613.0799999999999,-10342.305,0.0,0.0,0.0,0.0,6
14856.525,29124.9,742.05,-10245.465,0.0,0.0,0.0,0.0,6
15638.58,28016.055,1692.9,-9391.095,0.0,0.0,0.0,0.0,6
16745.309999999998,26163.18,2940.0299999999997,-8272.98,0.0,0.0,0.0,0.0,6
17157.735,24872.355,3477.645,-7796.07,0.0,0.0,0.0,0.0,6
16926.75,24857.504999999997,3218.31,-8029.71,0.0,0.0,0.0,0.0,6
16303.95,25875.539999999997,2435.085,-8719.065,0.0,0.0,0.0,0.0,6
15236.46,27855.0,1217.385,-9806.22,0.0,0.0,0.0,0.0,6
14599.35,29324.34,449.01,-10493.37,0.0,0.0,0.0,0.0,6
14446.935,29798.414999999997,314.145,-10629.54,0.0,0.0,0.0,0.0,6
15038.1,29029.365,1007.145,-10032.12,0.0,0.0,0.0,0.0,6
16064.01,27362.61,2190.645,-8974.26,0.0,0.0,0.0,0.0,6
16714.305,25844.67,3005.595,-8242.695,0.0,0.0,0.0,0.0,6
16522.965,25662.51,2855.6549999999997,-8388.72,0.0,0.0,0.0,0.0,6
16083.09,26341.155,2275.335,-8900.64,0.0,0.0,0.0,0.0,6
15083.82,28103.67,1102.32,-9951.93,0.0,0.0,0.0,0.0,6
14321.52,29698.785,179.685,-10775.07,0.0,0.0,0.0,0.0,6
13978.26,30552.164999999997,-191.295,-11113.245,0.0,0.0,0.0,0.0,6
14293.575,30281.039999999997,227.115,-10758.555,0.0,0.0,0.0,0.0,6
15291.855,28711.98,1378.89,-9728.01,0.0,0.0,0.0,0.0,6
16115.13,27056.52,2372.805,-8835.39,0.0,0.0,0.0,0.0,6
16052.85,26534.745,2410.11,-8816.58,0.0,0.0,0.0,0.0,6
15731.955,26898.39,1988.685,-9192.87,0.0,0.0,0.0,0.0,6
14894.01,28317.51,967.725,-10097.505,0.0,0.0,0.0,0.0,6
14036.76,29959.785,-71.1,-11026.395,0.0,0.0,0.0,0.0,6
13549.455,31135.32,-648.54,-11556.315,0.0,0.0,0.0,0.0,6
13605.705,31390.47,-549.765,-11500.74,0.0,0.0,0.0,0.0,6
14516.955,30049.785,491.13,-10574.73,0.0,0.0,0.0,0.0,6
15490.755,28181.879999999997,1668.465,-9510.39,0.0,0.0,0.0,0.0,6
15598.935,27352.215,1944.855,-9273.915,0.0,0.0,0.0,0.0,6
15315.345,27522.585,1607.76,-9585.63,0.0,0.0,0.0,0.0,6
14681.7,28563.03,804.555,-10292.31,0.0,0.0,0.0,0.0,6
13815.315,30173.31,-274.32,-11257.425,0.0,0.0,0.0,0.0,6
13136.445,31633.11,-1048.23,-11952.81,0.0,0.0,0.0,0.0,6
12911.445,32307.525,-1223.19,-12128.625,0.0,0.0,0.0,0.0,6
13598.595,31454.46,-433.305,-11435.31,0.0,0.0,0.0,0.0,6
14744.925,29462.535,869.625,-10261.71,0.0,0.0,0.0,0.0,6
15173.055,28207.485,1465.695,-9739.215,0.0,0.0,0.0,0.0,6
14883.57,28258.695,1199.61,-9995.85,0.0,0.0,0.0,0.0,6
14473.755,28926.0,622.755,-10500.255,0.0,0.0,0.0,0.0,6
13661.55,30334.725,-390.78,-11398.995,0.0,0.0,0.0,0.0,6
12868.605,31962.06,-1336.905,-12250.665,0.0,0.0,0.0,0.0,6
12466.215,32980.095,-1742.22,-12629.295,0.0,0.0,0.0,0.0,6
12847.635,32638.86,-1254.735,-12209.535,0.0,0.0,0.0,0.0,6
14022.945,30778.425,37.575,-11055.285,0.0,0.0,0.0,0.0,6
14813.955,28993.095,1009.845,-10177.065,0.0,0.0,0.0,0.0,6
14617.08,28689.3,913.365,-10284.12,0.0,0.0,0.0,0.0,6
14314.995,29067.75,480.96,-10663.38,0.0,0.0,0.0,0.0,6
13633.155,30259.35,-420.39,-11461.815,0.0,0.0,0.0,0.0,6
12758.805,31932.72,-1466.505,-12404.79,0.0,0.0,0.0,0.0,6
12231.72,33190.29,-2057.355,-12941.73,0.0,0.0,0.0,0.0,6
12309.66,33330.869999999995,-1889.64,-12804.66,0.0,0.0,0.0,0.0,6
13296.195,31830.525,-755.3249999999999,-11790.495,0.0,0.0,0.0,0.0,6
14375.52,29765.43,480.15,-10678.725,0.0,0.0,0.0,0.0,6
14428.62,29022.705,669.1949999999999,-10528.92,0.0,0.0,0.0,0.0,6
14166.63,29197.485,347.085,-10818.135,0.0,0.0,0.0,0.0,6
13636.395,30056.355,-375.75,-11448.72,0.0,0.0,0.0,0.0,6
12770.235,31592.835,-1425.69,-12386.115,0.0,0.0,0.0,0.0,6
12127.095,33025.229999999996,-2184.84,-13073.265,0.0,0.0,0.0,0.0,6
11975.94,33575.22,-2316.42,-13216.23,0.0,0.0,0.0,0.0,6
12714.66,32511.42,-1426.23,-12420.675,0.0,0.0,0.0,0.0,6
13887.27,30417.705,-96.03,-11214.315,0.0,0.0,0.0,0.0,6
14308.785,29185.74,477.6749999999999,-10710.045,0.0,0.0,0.0,0.0,6
14056.11,29206.395,228.105,-10949.94,0.0,0.0,0.0,0.0,6
13668.705,29814.48,-332.775,-11443.005,0.0,0.0,0.0,0.0,6
12905.685,31183.289999999997,-1314.72,-12320.505,0.0,0.0,0.0,0.0,6
12196.395,32640.705,-2154.87,-13070.34,0.0,0.0,0.0,0.0,6
11858.895,33471.765,-2468.475,-13360.905,0.0,0.0,0.0,0.0,6
12368.295,32882.985,-1860.48,-12829.14,0.0,0.0,0.0,0.0,6
13533.885,30928.68,-560.745,-11664.63,0.0,0.0,0.0,0.0,6
14279.715,29307.555,337.77,-10859.04,0.0,0.0,0.0,0.0,6
14071.005,29110.905,203.58,-10997.055,0.0,0.0,0.0,0.0,6
13791.195,29442.96,-189.81,-11335.725,0.0,0.0,0.0,0.0,6
13080.735,30580.695,-1075.95,-12110.04,0.0,0.0,0.0,0.0,6
12340.845,32056.83,-2012.985,-12953.655,0.0,0.0,0.0,0.0,6
11897.1,33125.13,-2512.08,-13415.49,0.0,0.0,0.0,0.0,6
12078.045,33036.705,-2238.525,-13182.885,0.0,0.0,0.0,0.0,6
13096.17,31421.07,-1075.14,-12141.9,0.0,0.0,0.0,0.0,6
14072.76,29575.53,59.625,-11117.07,0.0,0.0,0.0,0.0,6
14024.025,29049.39,140.445,-11070.27,0.0,0.0,0.0,0.0,6
13791.42,29227.545,-160.56,-11336.67,0.0,0.0,0.0,0.0,6
13236.885,30157.155,-910.89,-11987.91,0.0,0.0,0.0,0.0,6
12497.535,31570.83,-1879.02,-12856.68,0.0,0.0,0.0,0.0,6
11972.97,32781.15,-2508.165,-13423.05,0.0,0.0,0.0,0.0,6
11879.055,33109.47,-2486.16,-13410.315,0.0,0.0,0.0,0.0,6
12700.845,31892.31,-1531.62,-12561.03,0.0,0.0,0.0,0.0,6
13811.85,29944.035,-271.71,-11428.695,0.0,0.0,0.0,0.0,6
14075.055,28990.305,147.42,-11067.75,0.0,0.0,0.0,0.0,6
13821.885,29024.504999999997,-111.375,-11305.935,0.0,0.0,0.0,0.0,6
13392.99,29717.955,-722.115,-11838.24,0.0,0.0,0.0,0.0,6
12637.845,31075.515,-1689.9299999999998,-12696.93,0.0,0.0,0.0,0.0,6
12034.215,32412.105,-2442.42,-13366.98,0.0,0.0,0.0,0.0,6
11814.255,33037.335,-2633.895,-13555.17,0.0,0.0,0.0,0.0,6
12372.435,32297.445,-1948.455,-12947.67,0.0,0.0,0.0,0.0,6
13470.345,30433.68,-681.39,-11799.63,0.0,0.0,0.0,0.0,6
14056.965,29064.42,70.24499999999999,-11133.45,0.0,0.0,0.0,0.0,6
13860.765,28880.955,-76.815,-11284.965,0.0,0.0,0.0,0.0,6
13550.715,29321.325,-536.4449999999999,-11683.665,0.0,0.0,0.0,0.0,6
12813.705,30597.705,-1466.415,-12506.085,0.0,0.0,0.0,0.0,6
12078.72,32064.615,-2361.015,-13300.965,0.0,0.0,0.0,0.0,6
11678.355,33063.975,-2824.02,-13729.59,0.0,0.0,0.0,0.0,6
11909.25,32925.6,-2492.415,-13451.715,0.0,0.0,0.0,0.0,6
12877.155,31331.61,-1357.47,-12438.27,0.0,0.0,0.0,0.0,6
13705.245,29696.085,-326.385,-11500.38,0.0,0.0,0.0,0.0,6
13555.08,29348.28,-343.84499999999997,-11538.27,0.0,0.0,0.0,0.0,6
13306.41,29628.72,-699.03,-11855.97,0.0,0.0,0.0,0.0,6
12692.115,30680.235,-1524.69,-12583.17,0.0,0.0,0.0,0.0,6
11878.425,32259.285,-2561.805,-13516.695,0.0,0.0,0.0,0.0,6
11328.3,33560.685,-3180.7349999999997,-14071.995,0.0,0.0,0.0,0.0,6
11234.295,33932.655,-3147.48,-14045.04,0.0,0.0,0.0,0.0,6
12089.025,32726.879999999997,-2179.35,-13190.715,0.0,0.0,0.0,0.0,6
13169.43,30805.605,-950.4,-12086.82,0.0,0.0,0.0,0.0,6
13313.835,29951.46,-635.4,-11814.57,0.0,0.0,0.0,0.0,6
12977.145,30142.935,-985.545,-12137.265,0.0,0.0,0.0,0.0,6
12460.32,30962.655,-1692.45,-12759.12,0.0,0.0,0.0,0.0,6
11560.185,32623.155,-2831.76,-13791.24,0.0,0.0,0.0,0.0,6
10813.995,34306.784999999996,-3709.395,-14584.905,0.0,0.0,0.0,0.0,6
10460.52,35179.56,-3977.595,-14834.475,0.0,0.0,0.0,0.0,6
11001.69,34546.185,-3297.69,-14234.265,0.0,0.0,0.0,0.0,6
12149.235,32603.31,-1999.53,-13068.045,0.0,0.0,0.0,0.0,6
12735.765,31098.824999999997,-1265.805,-12415.815,0.0,0.0,0.0,0.0,6
12356.055,31111.245,-1603.935,-12741.615,0.0,0.0,0.0,0.0,6
11749.905,31954.905,-2361.87,-13423.545,0.0,0.0,0.0,0.0,6
10475.955,34098.345,-3808.305,-14729.355,0.0,0.0,0.0,0.0,6
9207.945,36585.63,-5196.105,-15992.055,0.0,0.0,0.0,0.0,6
8362.71,38383.695,-6043.23,-16793.055,0.0,0.0,0.0,0.0,6
8311.41,38869.695,-5985.224999999999,-16780.14,0.0,0.0,0.0,0.0,6
9115.065,37806.48,-5016.465,-15926.625,0.0,0.0,0.0,0.0,6
9889.335,36344.7,-4094.91,-15108.93,0.0,0.0,0.0,0.0,6
9610.2,36215.595,-4266.135,-15292.44,0.0,0.0,0.0,0.0,6
9103.86,37003.814999999995,-4874.4,-15841.935,0.0,0.0,0.0,0.0,6
8050.185,38935.53,-6111.63,-16959.195,0.0,0.0,0.0,0.0,6
6795.63,41383.395,-7513.83,-18237.06,0.0,0.0,0.0,0.0,6
6008.085,43232.85,-8372.789999999999,-19038.285,0.0,0.0,0.0,0.0,6
5918.4,43721.369999999995,-8404.38,-19102.815,0.0,0.0,0.0,0.0,6
6846.03,42825.51,-7351.514999999999,-18176.175,0.0,0.0,0.0,0.0,6
8025.255,40933.755,-6001.38,-16955.595,0.0,0.0,0.0,0.0,6
8267.265,39922.11,-5614.065,-16620.84,0.0,0.0,0.0,0.0,6
7997.895,40138.605,-5939.594999999999,-16922.16,0.0,0.0,0.0,0.0,6
7256.88,41403.195,-6836.715,-17712.09,0.0,0.0,0.0,0.0,6
6126.66,42835.77,-8128.665,-18945.18,0.0,0.0,0.0,0.0,6
5063.3099999999995,36780.435,-9163.665,-20590.92,0.0,0.0,0.0,0.0,6
4185.2699999999995,32605.56,-9906.705,-21835.845,0.0,0.0,0.0,0.0,6
4768.29,40710.42,-9422.325,-20648.205,0.0,0.0,0.0,0.0,6
6183.315,42123.42,-7918.785,-18877.815,0.0,0.0,0.0,0.0,6
6919.65,40565.52,-7024.679999999999,-18062.505,0.0,0.0,0.0,0.0,6
6754.634999999999,40447.619999999995,-7156.98,-18183.735,0.0,0.0,0.0,0.0,6
6291.8099999999995,41272.425,-7767.945,-18713.475,0.0,0.0,0.0,0.0,6
5258.205,42427.755,-8981.865,-19854.045,0.0,0.0,0.0,0.0,6
4358.385,34552.71,-10078.335,-20029.365,0.0,0.0,0.0,0.0,6
3707.91,25880.49,-10962.315,-18376.515,0.0,0.0,0.0,0.0,6
3467.25,35322.93,-10794.015,-21191.4,0.0,0.0,0.0,0.0,6
4691.385,42258.33,-9434.205,-20437.155,0.0,0.0,0.0,0.0,6
5901.84,40536.225,-8106.075,-19144.395,0.0,0.0,0.0,0.0,6
5983.0199999999995,39905.73,-7956.405,-19023.525,0.0,0.0,0.0,0.0,6
5685.57,40305.42,-8348.715,-19346.49,0.0,0.0,0.0,0.0,6
4859.054999999999,41913.045,-9391.77,-20273.445,0.0,0.0,0.0,0.0,6
3923.91,41710.41,-10496.655,-21173.535,0.0,0.0,0.0,0.0,6
3560.355,29432.295,-11018.61,-18726.795,0.0,0.0,0.0,0.0,6
3396.645,30975.03,-11015.1,-19839.78,0.0,0.0,0.0,0.0,6
4343.76,41693.31,-9850.095,-20886.255,0.0,0.0,0.0,0.0,6
5738.8949999999995,40721.67,-8326.755,-19391.715,0.0,0.0,0.0,0.0,6
6105.375,39465.27,-7858.755,-18985.185,0.0,0.0,0.0,0.0,6
5937.21,39511.08,-8080.065,-19176.345,0.0,0.0,0.0,0.0,6
5290.425,40727.07,-8928.72,-19916.37,0.0,0.0,0.0,0.0,6
4195.26,42693.39,-10169.955,-21017.97,0.0,0.0,0.0,0.0,6
3512.0699999999997,39675.689999999995,-10885.725,-22053.6,0.0,0.0,0.0,0.0,6
3479.94,33900.255,-10722.87,-22610.43,0.0,0.0,0.0,0.0,6
4454.28,41087.564999999995,-9811.395,-21079.53,0.0,0.0,0.0,0.0,6
5914.349999999999,41097.06,-8275.904999999999,-19328.175,0.0,0.0,0.0,0.0,6
6649.92,39214.26,-7417.889999999999,-18540.675,0.0,0.0,0.0,0.0,6
6461.55,38898.36,-7532.145,-18607.32,0.0,0.0,0.0,0.0,6
5982.12,39662.865,-8178.344999999999,-19163.07,0.0,0.0,0.0,0.0,6
4974.929999999999,41683.095,-9360.9,-20244.825,0.0,0.0,0.0,0.0,6
4126.23,43403.175,-10358.955,-21175.245,0.0,0.0,0.0,0.0,6
4028.22,43619.805,-10526.535,-21668.04,0.0,0.0,0.0,0.0,6
4750.335,43293.509999999995,-9674.55,-20810.07,0.0,0.0,0.0,0.0,6
6087.105,41374.17,-8165.16,-19269.585,0.0,0.0,0.0,0.0,6
7236.945,38949.57,-6902.054999999999,-18121.455,0.0,0.0,0.0,0.0,6
7350.57,38128.41,-6709.679999999999,-17942.895,0.0,0.0,0.0,0.0,6
7011.179999999999,38412.72,-7113.195,-18261.225,0.0,0.0,0.0,0.0,6
6003.045,40124.385,-8341.92,-19364.175,0.0,0.0,0.0,0.0,6
4894.92,42371.91,-9607.095,-20503.62,0.0,0.0,0.0,0.0,6
4377.42,43797.375,-10122.39,-20964.24,0.0,0.0,0.0,0.0,6
4758.885,43622.189999999995,-9691.335,-20603.295,0.0,0.0,0.0,0.0,6
6124.995,41503.095,-8211.105,-19276.83,0.0,0.0,0.0,0.0,6
7637.58,38703.33,-6547.275,-17759.655,0.0,0.0,0.0,0.0,6
8063.775,37202.22,-5987.969999999999,-17241.795,0.0,0.0,0.0,0.0,6
7872.884999999999,36980.955,-6240.69,-17438.399999999998,0.0,0.0,0.0,0.0,6
6946.965,38230.155,-7366.365,-18421.38,0.0,0.0,0.0,0.0,6
5591.07,40587.705,-8914.185,-19805.31,0.0,0.0,0.0,0.0,6
4732.155,42583.68,-9876.51,-20684.115,0.0,0.0,0.0,0.0,6
4763.61,43158.51,-9801.36,-20673.855,0.0,0.0,0.0,0.0,6
5963.67,41626.395,-8461.619999999999,-19498.995,0.0,0.0,0.0,0.0,6
7711.29,38802.78,-6575.04,-17803.755,0.0,0.0,0.0,0.0,6
8641.98,36625.185,-5542.469999999999,-16869.915,0.0,0.0,0.0,0.0,6
8564.805,35987.625,-5558.219999999999,-16837.785,0.0,0.0,0.0,0.0,6
7846.785,36830.655,-6435.405,-17599.454999999998,0.0,0.0,0.0,0.0,6
6378.929999999999,39194.775,-8079.884999999999,-19088.73,0.0,0.0,0.0,0.0,6
5208.66,41647.14,-9442.17,-20338.92,0.0,0.0,0.0,0.0,6
4731.525,42935.445,-9913.005,-20774.88,0.0,0.0,0.0,0.0,6
5337.54,42179.985,-9096.57,-20019.78,0.0,0.0,0.0,0.0,6
7045.605,39526.965,-7252.469999999999,-18341.325,0.0,0.0,0.0,0.0,6
8576.46,36747.314999999995,-5605.83,-16840.26,0.0,0.0,0.0,0.0,6
8972.46,35538.255,-5121.855,-16413.75,0.0,0.0,0.0,0.0,6
8811.855,35752.95,-5465.61,-16788.149999999998,0.0,0.0,0.0,0.0,6
7264.125,37837.17,-7164.99,-18356.895,0.0,0.0,0.0,0.0,6
5601.375,40635.945,-8995.14,-19986.12,0.0,0.0,0.0,0.0,6
4768.92,42599.205,-9895.23,-20755.485,0.0,0.0,0.0,0.0,6
5174.73,42678.765,-9473.715,-20336.085,0.0,0.0,0.0,0.0,6
6819.66,40348.035,-7752.825,-18758.295,0.0,0.0,0.0,0.0,6
8741.115,37041.795,-5656.455,-16832.88,0.0,0.0,0.0,0.0,6
9586.305,35007.435,-4732.74,-16027.155,0.0,0.0,0.0,0.0,6
9308.07,34674.21,-4957.335,-16213.68,0.0,0.0,0.0,0.0,6
7930.799999999999,36488.205,-6528.599999999999,-17643.105,0.0,0.0,0.0,0.0,6
6102.945,39610.485,-8574.705,-19509.84,0.0,0.0,0.0,0.0,6
4754.655,42269.67,-9937.755,-20751.255,0.0,0.0,0.0,0.0,6
4577.175,43167.96,-9999.855,-20838.375,0.0,0.0,0.0,0.0,6
6073.0199999999995,41378.4,-8384.445,-19387.89,0.0,0.0,0.0,0.0,6
8296.56,37791.72,-6057.764999999999,-17241.84,0.0,0.0,0.0,0.0,6
9825.93,34677.45,-4399.0199999999995,-15706.215,0.0,0.0,0.0,0.0,6
10216.35,33384.69,-4033.845,-15349.815,0.0,0.0,0.0,0.0,6
9441.0,34242.255,-5019.84,-16252.2,0.0,0.0,0.0,0.0,6
7656.929999999999,37131.84,-6999.344999999999,-18100.755,0.0,0.0,0.0,0.0,6
5777.91,40414.455,-9007.47,-19917.72,0.0,0.0,0.0,0.0,6
5053.679999999999,42208.11,-9792.09,-20615.4,0.0,0.0,0.0,0.0,6
6092.01,41238.945,-8616.105,-19557.09,0.0,0.0,0.0,0.0,6
8400.6,37705.68,-6057.675,-17263.62,0.0,0.0,0.0,0.0,6
10631.205,33892.604999999996,-3719.25,-15113.025,0.0,0.0,0.0,0.0,6
11197.08,32199.345,-3117.87,-14511.96,0.0,0.0,0.0,0.0,6
10528.605,32630.22,-3911.175,-15185.79,0.0,0.0,0.0,0.0,6
8711.46,35111.655,-5940.315,-17035.515,0.0,0.0,0.0,0.0,6
6498.45,38700.81,-8320.77,-19222.29,0.0,0.0,0.0,0.0,6
5071.7699999999995,41316.66,-9612.495,-20477.565,0.0,0.0,0.0,0.0,6
5529.599999999999,41265.18,-8986.41,-20006.64,0.0,0.0,0.0,0.0,6
7915.724999999999,38069.955,-6508.215,-17805.87,0.0,0.0,0.0,0.0,6
10610.505,33840.09,-3726.36,-15264.855,0.0,0.0,0.0,0.0,6
11766.42,31473.315,-2594.88,-14128.785,0.0,0.0,0.0,0.0,6
11614.32,31242.645,-3006.585,-14307.93,0.0,0.0,0.0,0.0,6
9939.42,33542.505,-4890.554999999999,-15952.545,0.0,0.0,0.0,0.0,6
7361.775,37286.01,-7499.565,-18324.09,0.0,0.0,0.0,0.0,6
5533.65,40678.83,-9328.095,-20030.895,0.0,0.0,0.0,0.0,6
5425.11,41719.95,-9344.52,-20112.93,0.0,0.0,0.0,0.0,6
7358.67,39409.695,-7296.66,-18267.525,0.0,0.0,0.0,0.0,6
10225.845,35059.905,-4367.745,-15606.405,0.0,0.0,0.0,0.0,6
11854.035,31834.935,-2592.315,-13956.975,0.0,0.0,0.0,0.0,6
11877.345,30826.395,-2528.415,-13867.065,0.0,0.0,0.0,0.0,6
10523.205,32287.905,-4071.06,-15242.94,0.0,0.0,0.0,0.0,6
8312.13,35591.265,-6464.565,-17418.69,0.0,0.0,0.0,0.0,6
6355.665,39147.705,-8501.895,-19317.465,0.0,0.0,0.0,0.0,6
5814.2699999999995,40828.185,-8939.16,-19817.28,0.0,0.0,0.0,0.0,6
7404.075,39154.5,-7192.755,-18321.75,0.0,0.0,0.0,0.0,6
10425.15,34759.08,-4009.23,-15539.49,0.0,0.0,0.0,0.0,6
12858.705,30681.315,-1398.015,-13183.155,0.0,0.0,0.0,0.0,6
13733.325,28638.09,-641.115,-12329.685,0.0,0.0,0.0,0.0,6
13041.855,29055.06,-1737.495,-13018.815,0.0,0.0,0.0,0.0,6
10730.7,32155.605,-4285.845,-15164.37,0.0,0.0,0.0,0.0,6
8567.46,35722.71,-6497.235,-17229.329999999998,0.0,0.0,0.0,0.0,6
7467.12,37888.02,-7516.71,-18214.02,0.0,0.0,0.0,0.0,6
8655.345,36844.47,-6256.44,-16991.055,0.0,0.0,0.0,0.0,6
11660.085,32702.805,-3063.87,-14079.78,0.0,0.0,0.0,0.0,6
14849.19,27888.12,269.90999999999997,-11057.805,0.0,0.0,0.0,0.0,6
16572.329999999998,24659.01,2029.185,-9448.335,0.0,0.0,0.0,0.0,6
16430.22,23952.285,1768.635,-9628.92,0.0,0.0,0.0,0.0,6
14278.185,26376.435,-468.0,-11629.89,0.0,0.0,0.0,0.0,6
11742.93,30333.24,-3187.845,-14154.255,0.0,0.0,0.0,0.0,6
10378.17,33025.68,-4588.514999999999,-15497.28,0.0,0.0,0.0,0.0,6
10929.42,32716.98,-3912.615,-14928.12,0.0,0.0,0.0,0.0,6
13587.435,29212.11,-1111.905,-12398.625,0.0,0.0,0.0,0.0,6
17429.985,23686.425,2882.745,-8794.935,0.0,0.0,0.0,0.0,6
18382.905,17945.82,5505.255,-6088.815,0.0,0.0,0.0,0.0,6
9168.84,8301.465,3759.75,-3960.27,0.0,0.0,0.0,0.0,6
15184.485,15299.325,3558.87,-6665.49,0.0,0.0,0.0,0.0,6
16312.185,22556.61,1114.74,-9818.145,0.0,0.0,0.0,0.0,6
14109.255,26232.12,-1128.645,-11858.76,0.0,0.0,0.0,0.0,6
13850.235,27205.785,-1074.87,-12028.59,0.0,0.0,0.0,0.0,6
15997.95,24221.43,1231.785,-9889.74,0.0,0.0,0.0,0.0,6
11617.56,12901.995,2534.4449999999997,-4895.19,0.0,0.0,0.0,0.0,6
949.005,893.43,262.71,-434.97,0.0,0.0,0.0,0.0,6
-42.66,-68.49,-49.59,-67.77,0.0,0.0,0.0,0.0,6
4541.8949999999995,-1592.325,2236.365,-1122.03,0.0,0.0,0.0,0.0,6
18680.985,-2451.555,6440.13,-4156.514999999999,0.0,0.0,0.0,0.0,6
19589.94,1190.2949999999998,4678.0199999999995,-6631.965,0.0,0.0,0.0,0.0,6
18741.735,2990.295,3765.375,-7501.139999999999,0.0,0.0,0.0,0.0,6
19614.78,1228.68,5113.17,-5942.25,0.0,0.0,0.0,0.0,6
10508.31,-1014.705,3712.68,-2194.11,0.0,0.0,0.0,0.0,6
370.395,-162.63,147.32999999999998,-144.63,0.0,0.0,0.0,0.0,6
-49.05,-60.03,-55.98,-62.055,0.0,0.0,0.0,0.0,6
1739.88,-1935.765,1196.19,118.8,0.0,0.0,0.0,0.0,6
17657.28,-13280.76,9026.73,541.62,0.0,0.0,0.0,0.0,6
24655.995,-14720.355,10008.45,-1237.59,0.0,0.0,0.0,0.0,6
23143.32,-12058.29,8356.904999999999,-2742.12,0.0,0.0,0.0,0.0,6
23715.495,-12552.345,9025.515,-2174.265,0.0,0.0,0.0,0.0,6
16867.71,-10696.905,7658.46,-165.555,0.0,0.0,0.0,0.0,6
1596.825,-1345.59,847.62,15.705,0.0,0.0,0.0,0.0,6
-49.14,-60.03,-56.025,-62.19,0.0,0.0,0.0,0.0,6
81.36,-291.24,69.795,9.585,0.0,0.0,0.0,0.0,6
10052.37,-10641.735,6430.41,2208.42,0.0,0.0,0.0,0.0,6
27576.0,-24124.32,14196.33,3456.585,0.0,0.0,0.0,0.0,6
27888.705,-22555.305,12968.955,1887.39,0.0,0.0,0.0,0.0,6
27659.295,-22284.99,13111.335,1999.395,0.0,0.0,0.0,0.0,6
17097.434999999998,-15096.015,9138.735,2190.645,0.0,0.0,0.0,0.0,6
1153.98,-1311.03,720.855,184.995,0.0,0.0,0.0,0.0,6
-49.095,-59.94,-56.205,-62.055,0.0,0.0,0.0,0.0,6
-49.23,-59.849999999999994,-56.16,-62.19,0.0,0.0,0.0,0.0,6
1925.28,-2879.595,1703.4299999999998,852.03,0.0,0.0,0.0,0.0,6
20903.355,-22941.405,14017.365,5103.135,0.0,0.0,0.0,0.0,6
32755.275,-31888.935,18385.92,5302.98,0.0,0.0,0.0,0.0,6
32060.61,-30845.25,17816.219999999998,4963.905,0.0,0.0,0.0,0.0,6
17238.105,-17712.989999999998,10456.155,3316.545,0.0,0.0,0.0,0.0,6
807.75,-1095.345,569.88,179.82,0.0,0.0,0.0,0.0,6
-48.915,-60.12,-56.07,-62.055,0.0,0.0,0.0,0.0,6
-49.23,-59.895,-56.07,-62.01,0.0,0.0,0.0,0.0,6
694.98,-1305.135,678.015,468.405,0.0,0.0,0.0,0.0,6
16805.835,-20196.405,12789.0,6771.915,0.0,0.0,0.0,0.0,6
35138.205,-36828.045,21781.62,9654.435,0.0,0.0,0.0,0.0,6
35540.595,-36139.185,20913.615,8632.17,0.0,0.0,0.0,0.0,6
30130.11,-31512.555,18615.78,8169.435,0.0,0.0,0.0,0.0,6
6450.57,-7612.83,4554.2699999999995,2281.005,0.0,0.0,0.0,0.0,6
-45.585,-70.24499999999999,-52.245,-59.129999999999995,0.0,0.0,0.0,0.0,6
-49.14,-60.12,-55.934999999999995,-62.145,0.0,0.0,0.0,0.0,6
31.095,-264.59999999999997,24.975,14.76,0.0,0.0,0.0,0.0,6
9211.05,-12272.22,7774.469999999999,4929.929999999999,0.0,0.0,0.0,0.0,6
33700.68,-37256.175,22892.445,11804.67,0.0,0.0,0.0,0.0,6
37702.845,-39606.03,23174.325,10928.43,0.0,0.0,0.0,0.0,6
36079.47,-38117.925,22257.405,10644.435,0.0,0.0,0.0,0.0,6
15633.315,-17894.114999999998,10679.355,5629.59,0.0,0.0,0.0,0.0,6
347.625,-639.36,289.485,159.03,0.0,0.0,0.0,0.0,6
-49.14,-59.985,-56.07,-62.19,0.0,0.0,0.0,0.0,6
-48.51,-70.2,-55.62,-61.83,0.0,0.0,0.0,0.0,6
4145.625,-6216.165,3743.595,2696.67,0.0,0.0,0.0,0.0,6
28642.995,-33513.57,20824.065,12090.105,0.0,0.0,0.0,0.0,6
38878.515,-41916.869999999995,24669.585,12740.085,0.0,0.0,0.0,0.0,6
38403.314999999995,-40975.65,24109.74,12227.4,0.0,0.0,0.0,0.0,6
26258.85,-29444.31,17681.535,9584.685,0.0,0.0,0.0,0.0,6
2685.105,-3542.31,2078.5499999999997,1254.915,0.0,0.0,0.0,0.0,6
-49.095,-59.94,-56.07,-62.37,0.0,0.0,0.0,0.0,6
-49.095,-59.985,-56.205,-62.19,0.0,0.0,0.0,0.0,6
1456.245,-2611.5299999999997,1398.735,843.615,0.0,0.0,0.0,0.0,6
21793.365,-26865.585,16753.86,7498.215,0.0,0.0,0.0,0.0,6
38829.6,-42747.57,24994.935,9271.845,0.0,0.0,0.0,0.0,6
38747.385,-41697.81,23900.67,8566.154999999999,0.0,0.0,0.0,0.0,6
34365.195,-37977.93,22134.33,8726.175,0.0,0.0,0.0,0.0,6
9119.925,-11138.67,6649.695,3082.41,0.0,0.0,0.0,0.0,6
-24.255,-113.445,-31.049999999999997,-43.245,0.0,0.0,0.0,0.0,6
-49.275,-59.805,-55.98,-62.099999999999994,0.0,0.0,0.0,0.0,6
198.36,-593.415,192.69,150.345,0.0,0.0,0.0,0.0,6
13219.605,-17280.63,10934.235,6331.905,0.0,0.0,0.0,0.0,6
37543.095,-42170.49,25553.565,12260.565,0.0,0.0,0.0,0.0,6
39628.665,-42784.74,25043.985,11027.925,0.0,0.0,0.0,0.0,6
38684.385,-42079.365,24736.23,10954.26,0.0,0.0,0.0,0.0,6
20797.92,-24077.7,14525.685,7141.545,0.0,0.0,0.0,0.0,6
988.11,-1464.3,807.7049999999999,445.185,0.0,0.0,0.0,0.0,6
-49.14,-59.94,-56.07,-62.055,0.0,0.0,0.0,0.0,6
-27.945,-161.325,-34.695,-41.265,0.0,0.0,0.0,0.0,6
7715.565,-10856.835,6613.92,4170.599999999999,0.0,0.0,0.0,0.0,6
34402.68,-39692.61,24293.7,12727.26,0.0,0.0,0.0,0.0,6
40020.885,-43464.915,25581.96,12166.11,0.0,0.0,0.0,0.0,6
39565.305,-42399.314999999995,24804.18,11533.635,0.0,0.0,0.0,0.0,6
32678.01,-36389.655,21568.905,10805.715,0.0,0.0,0.0,0.0,6
6073.5599999999995,-7561.575,4508.73,2522.6549999999997,0.0,0.0,0.0,0.0,6
-48.645,-62.325,-55.485,-61.605,0.0,0.0,0.0,0.0,6
-48.69,-74.74499999999999,-55.71,-61.785,0.0,0.0,0.0,0.0,6
4270.86,-6571.844999999999,3657.645,2455.65,0.0,0.0,0.0,0.0,6
30386.16,-35928.18,21560.985,11938.59,0.0,0.0,0.0,0.0,6
39766.14,-43740.72,25224.21,12356.685,0.0,0.0,0.0,0.0,6
38480.805,-41605.65,23805.81,10980.63,0.0,0.0,0.0,0.0,6
38267.189999999995,-41790.42,24259.905,11585.295,0.0,0.0,0.0,0.0,6
19881.81,-23244.345,13827.195,7404.48,0.0,0.0,0.0,0.0,6
811.755,-1281.015,662.535,399.24,0.0,0.0,0.0,0.0,6
-49.05,-60.21,-56.025,-61.965,0.0,0.0,0.0,0.0,6
1912.59,-3332.205,1709.82,1231.74,0.0,0.0,0.0,0.0,6
24512.535,-29928.51,17742.78,10306.305,0.0,0.0,0.0,0.0,6
39312.99,-43698.509999999995,24946.92,12475.485,0.0,0.0,0.0,0.0,6
38060.055,-41143.814999999995,23269.905,10766.565,0.0,0.0,0.0,0.0,6
38565.855,-41164.785,23554.62,10980.36,0.0,0.0,0.0,0.0,6
31517.01,-35231.895,20759.76,10751.13,0.0,0.0,0.0,0.0,6
5360.13,-6909.929999999999,4087.755,2441.88,0.0,0.0,0.0,0.0,6
-48.69,-62.504999999999995,-55.665,-61.695,0.0,0.0,0.0,0.0,6
358.425,-976.77,345.51,276.48,0.0,0.0,0.0,0.0,6
15583.725,-20329.605,11725.695,7132.679999999999,0.0,0.0,0.0,0.0,6
37250.145,-42492.735,23858.37,12096.855,0.0,0.0,0.0,0.0,6
37118.25,-40822.244999999995,22331.835,10107.315,0.0,0.0,0.0,0.0,6
36785.52,-39649.005,21961.395,9699.705,0.0,0.0,0.0,0.0,6
37618.11,-41038.83,23344.92,11198.205,0.0,0.0,0.0,0.0,6
20232.36,-23583.24,13654.53,7278.12,0.0,0.0,0.0,0.0,6
904.185,-1351.845,698.31,404.235,0.0,0.0,0.0,0.0,6
340.78499999999997,-756.9449999999999,328.455,240.345,0.0,0.0,0.0,0.0,6
15068.88,-19238.94,11294.235,6474.915,0.0,0.0,0.0,0.0,6
35710.515,-41151.869999999995,22275.315,10643.13,0.0,0.0,0.0,0.0,6
34957.665,-38630.475,20089.935,8110.395,0.0,0.0,0.0,0.0,6
33790.005,-36183.06,18910.395,7037.1449999999995,0.0,0.0,0.0,0.0,6
34700.085,-36824.895,19936.845,7973.19,0.0,0.0,0.0,0.0,6
36796.635,-40048.65,22139.055,9975.51,0.0,0.0,0.0,0.0,6
29800.8,-35457.57,20773.755,10810.71,0.0,0.0,0.0,0.0,6
8642.43,-15675.84,7881.705,5601.51,0.0,0.0,0.0,0.0,6
18536.175,-25402.365,12879.36,6785.054999999999,0.0,0.0,0.0,0.0,6
34298.369999999995,-39892.095,20081.43,8216.279999999999,0.0,0.0,0.0,0.0,6
32605.199999999997,-36395.28,17513.325,5577.344999999999,0.0,0.0,0.0,0.0,6
30948.03,-33424.92,15932.61,4128.48,0.0,0.0,0.0,0.0,6
31328.955,-33013.845,16210.08,4370.58,0.0,0.0,0.0,0.0,6
32973.525,-35304.975,18149.445,6198.615,0.0,0.0,0.0,0.0,6
34729.065,-38469.96,20113.47,8049.87,0.0,0.0,0.0,0.0,6
35170.155,-40203.225,20604.465,8499.6,0.0,0.0,0.0,0.0,6
34444.619999999995,-39622.185,19858.77,7777.304999999999,0.0,0.0,0.0,0.0,6
32401.62,-36532.439999999995,17783.684999999998,5839.92,0.0,0.0,0.0,0.0,6
29920.41,-32281.515,15134.085,3361.725,0.0,0.0,0.0,0.0,6
28162.53,-28897.695,13204.71,1473.03,0.0,0.0,0.0,0.0,6
27962.91,-27759.555,13050.945,1266.12,0.0,0.0,0.0,0.0,6
29628.585,-29375.19,14590.485,2676.87,0.0,0.0,0.0,0.0,6
31645.754999999997,-32562.675,16674.48,4671.855,0.0,0.0,0.0,0.0,6
32572.845,-35046.854999999996,17807.399999999998,5801.04,0.0,0.0,0.0,0.0,6
32345.73,-35339.31,17564.535,5573.385,0.0,0.0,0.0,0.0,6
30637.215,-33231.69,15927.93,4095.135,0.0,0.0,0.0,0.0,6
28467.765,-29367.09,13545.54,1806.435,0.0,0.0,0.0,0.0,6
26597.025,-25776.765,11551.32,-118.395,0.0,0.0,0.0,0.0,6
26163.945,-24402.645,11205.0,-462.96,0.0,0.0,0.0,0.0,6
26882.955,-25045.515,12015.72,287.01,0.0,0.0,0.0,0.0,6
28512.0,-27522.765,13797.9,1996.92,0.0,0.0,0.0,0.0,6
29911.86,-30111.074999999997,15246.81,3326.085,0.0,0.0,0.0,0.0,6
29911.77,-30814.11,15257.385,3305.745,0.0,0.0,0.0,0.0,6
28718.46,-29304.405,13977.72,2117.34,0.0,0.0,0.0,0.0,6
26615.52,-25776.45,11762.595,43.92,0.0,0.0,0.0,0.0,6
25237.485,-22941.225,10326.105,-1294.56,0.0,0.0,0.0,0.0,6
25260.705,-22244.085,10195.56,-1437.66,0.0,0.0,0.0,0.0,6
25508.205,-22229.595,10461.465,-1209.96,0.0,0.0,0.0,0.0,6
26022.195,-22835.115,11019.555,-650.2049999999999,0.0,0.0,0.0,0.0,6
27264.825,-24652.08,12358.485,632.385,0.0,0.0,0.0,0.0,6
27591.93,-25629.03,12985.02,1161.18,0.0,0.0,0.0,0.0,6
26875.395,-24845.265,12122.91,309.195,0.0,0.0,0.0,0.0,6
24748.92,-22426.425,10060.515,-1593.135,0.0,0.0,0.0,0.0,6
24181.245,-20840.085,9373.95,-2231.775,0.0,0.0,0.0,0.0,6
24732.45,-20370.105,9724.68,-1901.43,0.0,0.0,0.0,0.0,6
24811.92,-20232.675,9859.32,-1785.33,0.0,0.0,0.0,0.0,6
24695.46,-20349.495,9752.355,-1897.965,0.0,0.0,0.0,0.0,6
24752.52,-20823.03,9914.715,-1748.2949999999998,0.0,0.0,0.0,0.0,6
24870.06,-21595.815,10263.735,-1475.01,0.0,0.0,0.0,0.0,6
24511.05,-21273.345,9950.985,-1888.02,0.0,0.0,0.0,0.0,6
24208.379999999997,-19919.52,9384.435,-2448.4049999999997,0.0,0.0,0.0,0.0,6
24311.025,-19086.795,9141.66,-2516.085,0.0,0.0,0.0,0.0,6
24046.65,-18679.86,8728.875,-2643.0299999999997,0.0,0.0,0.0,0.0,6
23926.77,-18487.44,8806.005,-2706.48,0.0,0.0,0.0,0.0,6
23845.185,-18524.115,8921.43,-2661.75,0.0,0.0,0.0,0.0,6
23750.73,-18602.595,9072.495,-2546.37,0.0,0.0,0.0,0.0,6
23668.695,-18567.225,9001.484999999999,-2660.265,0.0,0.0,0.0,0.0,6
23546.61,-18373.275,8858.835,-2820.7799999999997,0.0,0.0,0.0,0.0,6
23271.075,-17992.844999999998,8636.535,-2993.535,0.0,0.0,0.0,0.0,6
23339.07,-17494.065,8500.32,-3098.835,0.0,0.0,0.0,0.0,6
23350.14,-17064.27,8311.365,-3292.605,0.0,0.0,0.0,0.0,6
23236.245,-16836.524999999998,8158.32,-3446.055,0.0,0.0,0.0,0.0,6
23183.91,-16803.765,8182.98,-3428.37,0.0,0.0,0.0,0.0,6
23042.295,-16862.94,8277.345,-3364.065,0.0,0.0,0.0,0.0,6
22723.56,-16872.345,8152.155,-3492.99,0.0,0.0,0.0,0.0,6
22486.635,-16715.114999999998,7929.27,-3709.125,0.0,0.0,0.0,0.0,6
22507.695,-16392.329999999998,7793.054999999999,-3851.955,0.0,0.0,0.0,0.0,6
22713.525,-15918.075,7789.86,-3823.695,0.0,0.0,0.0,0.0,6
22763.07,-15479.1,7641.764999999999,-3954.195,0.0,0.0,0.0,0.0,6
22562.595,-15212.07,7381.17,-4163.715,0.0,0.0,0.0,0.0,6
22464.585,-15100.02,7240.23,-4341.375,0.0,0.0,0.0,0.0,6
22352.129999999997,-15102.63,7350.974999999999,-4260.87,0.0,0.0,0.0,0.0,6
22203.945,-15103.08,7500.06,-4156.47,0.0,0.0,0.0,0.0,6
21849.3,-15016.095,7342.83,-4292.28,0.0,0.0,0.0,0.0,6
21566.61,-14782.365,7091.594999999999,-4513.635,0.0,0.0,0.0,0.0,6
21711.6,-14383.305,7005.554999999999,-4592.115,0.0,0.0,0.0,0.0,6
21961.395,-13963.5,6970.86,-4580.37,0.0,0.0,0.0,0.0,6
21943.17,-13660.245,6796.71,-4764.554999999999,0.0,0.0,0.0,0.0,6
21791.925,-13498.155,6627.33,-4988.97,0.0,0.0,0.0,0.0,6
21984.03,-13473.405,6730.5599999999995,-4976.235,0.0,0.0,0.0,0.0,6
21550.59,-13502.655,7035.57,-4605.12,0.0,0.0,0.0,0.0,6
21248.73,-13488.705,6761.384999999999,-4866.66,0.0,0.0,0.0,0.0,6
20948.805,-13344.255,6378.255,-5211.99,0.0,0.0,0.0,0.0,6
20798.055,-13015.53,6076.485,-5481.045,0.0,0.0,0.0,0.0,6
21050.55,-12596.4,6088.545,-5471.054999999999,0.0,0.0,0.0,0.0,6
21272.4,-12226.5,6198.48,-5335.47,0.0,0.0,0.0,0.0,6
21261.195,-12013.38,6241.679999999999,-5320.349999999999,0.0,0.0,0.0,0.0,6
21222.45,-11957.265,6267.42,-5336.775,0.0,0.0,0.0,0.0,6
20975.355,-11999.52,6148.98,-5449.545,0.0,0.0,0.0,0.0,6
20766.015,-12009.51,6201.315,-5382.855,0.0,0.0,0.0,0.0,6
20581.02,-11911.905,5938.605,-5743.3949999999995,0.0,0.0,0.0,0.0,6
20314.17,-11657.34,5634.675,-6047.415,0.0,0.0,0.0,0.0,6
20249.595,-11302.2,5521.005,-6099.48,0.0,0.0,0.0,0.0,6
20574.675,-10942.65,5519.655,-6091.5599999999995,0.0,0.0,0.0,0.0,6
20575.305,-10712.835,5410.08,-6211.8,0.0,0.0,0.0,0.0,6
20426.985,-10631.475,5510.474999999999,-6118.83,0.0,0.0,0.0,0.0,6
20296.845,-10657.35,5486.13,-6175.215,0.0,0.0,0.0,0.0,6
20063.475,-10691.415,5407.695,-6223.679999999999,0.0,0.0,0.0,0.0,6
19716.615,-10638.225,5259.105,-6371.639999999999,0.0,0.0,0.0,0.0,6
19636.335,-10437.48,5139.764999999999,-6472.125,0.0,0.0,0.0,0.0,6
19785.195,-10110.42,5096.835,-6515.73,0.0,0.0,0.0,0.0,6
20079.405,-9744.66,5145.525,-6478.0199999999995,0.0,0.0,0.0,0.0,6
20207.835,-9473.985,5130.9,-6488.6849999999995,0.0,0.0,0.0,0.0,6
19948.86,-9363.06,4984.785,-6619.905,0.0,0.0,0.0,0.0,6
19926.405,-9328.905,5132.88,-6490.215,0.0,0.0,0.0,0.0,6
19706.535,-9317.88,5139.63,-6512.49,0.0,0.0,0.0,0.0,6
19313.325,-9301.005,4838.49,-6861.014999999999,0.0,0.0,0.0,0.0,6
19140.075,-9173.43,4598.235,-7121.745,0.0,0.0,0.0,0.0,6
19185.345,-8891.82,4597.425,-7079.04,0.0,0.0,0.0,0.0,6
19486.08,-8550.18,4595.8949999999995,-7088.58,0.0,0.0,0.0,0.0,6
19561.635,-8259.795,4572.855,-7057.62,0.0,0.0,0.0,0.0,6
19548.945,-8100.179999999999,4595.849999999999,-7013.07,0.0,0.0,0.0,0.0,6
19400.22,-8056.62,4564.215,-7055.73,0.0,0.0,0.0,0.0,6
19106.325,-8083.62,4441.635,-7213.32,0.0,0.0,0.0,0.0,6
18824.58,-8092.304999999999,4382.1449999999995,-7289.91,0.0,0.0,0.0,0.0,6
18718.605,-7975.259999999999,4365.045,-7307.235,0.0,0.0,0.0,0.0,6
18854.19,-7722.99,4363.605,-7301.745,0.0,0.0,0.0,0.0,6
18999.315,-7398.54,4304.16,-7328.34,0.0,0.0,0.0,0.0,6
19155.06,-7091.235,4218.615,-7388.145,0.0,0.0,0.0,0.0,6
19221.12,-6877.53,4251.78,-7383.42,0.0,0.0,0.0,0.0,6
19068.03,-6784.0199999999995,4241.655,-7419.69,0.0,0.0,0.0,0.0,6
18820.395,-6799.634999999999,4176.72,-7532.639999999999,0.0,0.0,0.0,0.0,6
18423.54,-6830.46,3991.725,-7742.25,0.0,0.0,0.0,0.0,6
18217.665,-6771.105,3868.92,-7835.04,0.0,0.0,0.0,0.0,6
18282.87,-6582.554999999999,3811.68,-7844.94,0.0,0.0,0.0,0.0,6
18496.17,-6275.565,3769.245,-7848.405,0.0,0.0,0.0,0.0,6
18585.495,-5964.21,3712.41,-7871.625,0.0,0.0,0.0,0.0,6
18721.035,-5705.594999999999,3772.035,-7849.98,0.0,0.0,0.0,0.0,6
18676.71,-5566.275,3803.67,-7831.98,0.0,0.0,0.0,0.0,6
18481.185,-5559.21,3797.955,-7843.679999999999,0.0,0.0,0.0,0.0,6
18240.66,-5590.349999999999,3727.755,-7929.27,0.0,0.0,0.0,0.0,6
17961.434999999998,-5567.04,3607.65,-8093.205,0.0,0.0,0.0,0.0,6
17897.355,-5433.48,3484.71,-8218.89,0.0,0.0,0.0,0.0,6
18083.97,-5161.455,3561.8399999999997,-8109.855,0.0,0.0,0.0,0.0,6
18253.98,-4854.15,3526.29,-8113.86,0.0,0.0,0.0,0.0,6
18318.735,-4588.29,3458.745,-8168.804999999999,0.0,0.0,0.0,0.0,6
18423.0,-4426.74,3620.925,-8068.005,0.0,0.0,0.0,0.0,6
18289.53,-4394.115,3678.615,-8070.84,0.0,0.0,0.0,0.0,6
17906.489999999998,-4439.07,3478.9049999999997,-8281.89,0.0,0.0,0.0,0.0,6
17642.16,-4455.179999999999,3282.5699999999997,-8476.11,0.0,0.0,0.0,0.0,6
17628.57,-4366.26,3188.7,-8534.025,0.0,0.0,0.0,0.0,6
17691.345,-4132.305,2991.555,-8658.72,0.0,0.0,0.0,0.0,6
17733.69,-3823.92,2933.685,-8658.404999999999,0.0,0.0,0.0,0.0,6
17917.829999999998,-3535.335,3167.145,-8484.074999999999,0.0,0.0,0.0,0.0,6
18089.01,-3357.72,3266.595,-8428.994999999999,0.0,0.0,0.0,0.0,6
17820.135,-3317.265,3258.9,-8369.82,0.0,0.0,0.0,0.0,6
17660.61,-3354.795,3245.1749999999997,-8432.685,0.0,0.0,0.0,0.0,6
17409.51,-3389.535,3197.43,-8547.84,0.0,0.0,0.0,0.0,6
17175.87,-3355.92,3048.885,-8688.015,0.0,0.0,0.0,0.0,6
17160.75,-3192.21,2889.495,-8851.635,0.0,0.0,0.0,0.0,6
17327.07,-2915.955,2800.845,-8916.3,0.0,0.0,0.0,0.0,6
17645.579999999998,-2625.39,2924.505,-8776.035,0.0,0.0,0.0,0.0,6
17860.364999999998,-2415.555,3016.44,-8694.0,0.0,0.0,0.0,0.0,6
17715.51,-2327.58,2916.315,-8753.265,0.0,0.0,0.0,0.0,6
17449.155,-2346.795,2807.1,-8839.529999999999,0.0,0.0,0.0,0.0,6
17186.895,-2392.92,2789.2799999999997,-8920.17,0.0,0.0,0.0,0.0,6
17003.88,-2399.4449999999997,2746.17,-8997.255,0.0,0.0,0.0,0.0,6
16873.245,-2286.0899999999997,2665.035,-9031.545,0.0,0.0,0.0,0.0,6
17076.735,-2015.19,2602.305,-9097.065,0.0,0.0,0.0,0.0,6
17291.07,-1705.32,2643.615,-9039.42,0.0,0.0,0.0,0.0,6
17449.2,-1451.52,2697.48,-8966.699999999999,0.0,0.0,0.0,0.0,6
17397.855,-1328.985,2722.41,-8938.125,0.0,0.0,0.0,0.0,6
17182.845,-1345.455,2657.565,-9018.27,0.0,0.0,0.0,0.0,6
17027.28,-1390.23,2682.495,-9037.62,0.0,0.0,0.0,0.0,6
16836.434999999998,-1410.75,2649.1949999999997,-9102.465,0.0,0.0,0.0,0.0,6
16724.52,-1332.63,2557.485,-9187.92,0.0,0.0,0.0,0.0,6
16732.98,-1111.005,2416.86,-9319.005,0.0,0.0,0.0,0.0,6
16914.825,-827.1899999999999,2308.635,-9397.08,0.0,0.0,0.0,0.0,6
17284.095,-595.89,2386.035,-9331.2,0.0,0.0,0.0,0.0,6
17376.66,-501.03,2504.16,-9243.27,0.0,0.0,0.0,0.0,6
17226.18,-470.16,2560.275,-9143.685,0.0,0.0,0.0,0.0,6
16835.895,-518.5799999999999,2482.335,-9229.68,0.0,0.0,0.0,0.0,6
16510.274999999998,-556.38,2377.935,-9333.945,0.0,0.0,0.0,0.0,6
16438.995,-513.54,2359.845,-9407.97,0.0,0.0,0.0,0.0,6
16536.51,-356.445,2323.62,-9437.67,0.0,0.0,0.0,0.0,6
16629.12,-93.735,2188.395,-9524.79,0.0,0.0,0.0,0.0,6
16818.975,191.16,2129.085,-9558.18,0.0,0.0,0.0,0.0,6
16904.385,383.265,2160.9449999999997,-9529.605,0.0,0.0,0.0,0.0,6
16801.965,445.41,2140.785,-9588.78,0.0,0.0,0.0,0.0,6
16677.45,401.625,2192.4449999999997,-9549.27,0.0,0.0,0.0,0.0,6
16500.149999999998,310.59,2275.875,-9484.38,0.0,0.0,0.0,0.0,6
16276.455,304.695,2161.7999999999997,-9651.555,0.0,0.0,0.0,0.0,6
16266.105,448.515,2098.665,-9718.695,0.0,0.0,0.0,0.0,6
16462.53,724.095,2110.23,-9708.84,0.0,0.0,0.0,0.0,6
16654.14,997.11,2078.46,-9720.18,0.0,0.0,0.0,0.0,6
16733.385,1217.07,1996.245,-9757.44,0.0,0.0,0.0,0.0,6
16779.285,1313.73,1948.14,-9809.325,0.0,0.0,0.0,0.0,6
16767.899999999998,1281.06,1993.23,-9751.815,0.0,0.0,0.0,0.0,6
16297.695,1203.12,1821.285,-9865.845,0.0,0.0,0.0,0.0,6
15891.975,1171.755,1797.615,-9951.39,0.0,0.0,0.0,0.0,6
15878.565,1262.2949999999998,1807.605,-9969.345,0.0,0.0,0.0,0.0,6
16086.015,1488.105,1847.385,-9938.52,0.0,0.0,0.0,0.0,6
16356.87,1747.485,1917.045,-9913.23,0.0,0.0,0.0,0.0,6
16548.21,1982.52,1898.64,-9906.705,0.0,0.0,0.0,0.0,6
16569.855,2115.45,1880.145,-9910.935,0.0,0.0,0.0,0.0,6
16374.195,2112.12,1815.84,-9959.22,0.0,0.0,0.0,0.0,6
16139.97,2029.23,1738.935,-9981.99,0.0,0.0,0.0,0.0,6
15893.64,1982.835,1718.325,-10028.115,0.0,0.0,0.0,0.0,6
15806.43,2034.36,1724.6699999999998,-10088.64,0.0,0.0,0.0,0.0,6
15873.39,2184.345,1719.99,-10155.69,0.0,0.0,0.0,0.0,6
16109.28,2434.86,1698.12,-10167.255,0.0,0.0,0.0,0.0,6
16349.805,2688.2999999999997,1761.21,-10064.88,0.0,0.0,0.0,0.0,6
16450.11,2863.755,1772.91,-9996.03,0.0,0.0,0.0,0.0,6
16256.295,2913.5699999999997,1664.595,-10065.645,0.0,0.0,0.0,0.0,6
16042.59,2866.635,1654.875,-10144.53,0.0,0.0,0.0,0.0,6
15901.245,2808.18,1659.465,-10247.31,0.0,0.0,0.0,0.0,6
15746.67,2821.185,1583.55,-10303.155,0.0,0.0,0.0,0.0,6
15765.435,2943.315,1554.9299999999998,-10309.005,0.0,0.0,0.0,0.0,6
15945.885,3185.865,1566.1799999999998,-10260.945,0.0,0.0,0.0,0.0,6
16148.97,3469.0049999999997,1660.185,-10143.765,0.0,0.0,0.0,0.0,6
16167.825,3673.71,1492.245,-10296.225,0.0,0.0,0.0,0.0,6
16067.745,3739.185,1438.65,-10393.245,0.0,0.0,0.0,0.0,6
15968.835,3698.055,1470.33,-10414.305,0.0,0.0,0.0,0.0,6
15723.135,3653.01,1433.205,-10451.745,0.0,0.0,0.0,0.0,6
15576.975,3640.455,1426.6799999999998,-10482.57,0.0,0.0,0.0,0.0,6
15594.66,3722.445,1428.21,-10529.145,0.0,0.0,0.0,0.0,6
15791.445,3924.63,1421.19,-10506.06,0.0,0.0,0.0,0.0,6
15968.25,4169.925,1363.05,-10463.49,0.0,0.0,0.0,0.0,6
16148.07,4407.48,1366.9199999999998,-10415.205,0.0,0.0,0.0,0.0,6
16237.26,4517.6849999999995,1493.28,-10334.565,0.0,0.0,0.0,0.0,6
16178.985,4508.775,1614.96,-10261.305,0.0,0.0,0.0,0.0,6
15914.655,4437.72,1538.28,-10325.88,0.0,0.0,0.0,0.0,6
15743.61,4383.675,1465.11,-10426.545,0.0,0.0,0.0,0.0,6
15556.275,4397.355,1273.68,-10648.53,0.0,0.0,0.0,0.0,6
15652.53,4565.429999999999,1205.685,-10698.435,0.0,0.0,0.0,0.0,6
15833.97,4872.51,1184.04,-10683.36,0.0,0.0,0.0,0.0,6
16036.02,5174.1449999999995,1187.775,-10659.24,0.0,0.0,0.0,0.0,6
16175.385,5325.615,1215.945,-10636.2,0.0,0.0,0.0,0.0,6
16092.18,5358.69,1201.14,-10670.13,0.0,0.0,0.0,0.0,6
15957.945,5304.96,1225.485,-10674.855,0.0,0.0,0.0,0.0,6
15833.25,5243.355,1302.66,-10652.67,0.0,0.0,0.0,0.0,6
15697.53,5225.985,1189.035,-10773.855,0.0,0.0,0.0,0.0,6
15769.575,5344.875,1068.21,-10887.48,0.0,0.0,0.0,0.0,6
15970.32,5591.79,1073.925,-10867.365,0.0,0.0,0.0,0.0,6
16231.455,5845.59,1119.105,-10766.565,0.0,0.0,0.0,0.0,6
16308.405,6037.11,1052.235,-10782.72,0.0,0.0,0.0,0.0,6
16363.845,6118.92,1036.53,-10819.845,0.0,0.0,0.0,0.0,6
16275.285,6078.0599999999995,1053.09,-10877.805,0.0,0.0,0.0,0.0,6
16090.605,6033.0599999999995,1107.81,-10843.425,0.0,0.0,0.0,0.0,6
15843.825,6028.5599999999995,1080.045,-10854.27,0.0,0.0,0.0,0.0,6
15879.87,6114.15,974.61,-10967.715,0.0,0.0,0.0,0.0,6
16049.07,6323.445,1000.26,-10918.575,0.0,0.0,0.0,0.0,6
16353.495,6583.86,978.255,-10915.38,0.0,0.0,0.0,0.0,6
16508.16,6804.134999999999,986.31,-10876.68,0.0,0.0,0.0,0.0,6
16504.92,6899.58,997.605,-10906.02,0.0,0.0,0.0,0.0,6
16366.95,6871.455,999.27,-10942.875,0.0,0.0,0.0,0.0,6
16209.27,6796.62,1018.89,-10966.455,0.0,0.0,0.0,0.0,6
16096.86,6755.67,998.28,-11008.575,0.0,0.0,0.0,0.0,6
16054.02,6812.505,974.7,-11072.61,0.0,0.0,0.0,0.0,6
16228.035,6989.58,930.15,-11059.38,0.0,0.0,0.0,0.0,6
16392.825,7227.9,770.895,-11072.52,0.0,0.0,0.0,0.0,6
16590.195,7457.445,793.485,-11004.975,0.0,0.0,0.0,0.0,6
16719.975,7587.719999999999,916.47,-10954.08,0.0,0.0,0.0,0.0,6
16655.13,7601.94,900.72,-10998.09,0.0,0.0,0.0,0.0,6
16434.945,7546.905,822.06,-11094.12,0.0,0.0,0.0,0.0,6
16123.32,7485.075,645.48,-11303.685,0.0,0.0,0.0,0.0,6
16098.3,7510.32,625.545,-11349.72,0.0,0.0,0.0,0.0,6
16173.495,7658.82,700.605,-11230.29,0.0,0.0,0.0,0.0,6
16450.559999999998,7907.715,650.34,-11278.215,0.0,0.0,0.0,0.0,6
16676.684999999998,8153.73,620.91,-11294.82,0.0,0.0,0.0,0.0,6
16828.559999999998,8332.154999999999,767.43,-11132.82,0.0,0.0,0.0,0.0,6
16816.995,8393.535,812.385,-11089.395,0.0,0.0,0.0,0.0,6
16563.42,8342.595,712.305,-11193.03,0.0,0.0,0.0,0.0,6
16281.72,8290.935,597.555,-11339.505,0.0,0.0,0.0,0.0,6
16167.555,8304.48,551.475,-11414.655,0.0,0.0,0.0,0.0,6
16302.78,8412.93,593.055,-11379.78,0.0,0.0,0.0,0.0,6
16542.36,8639.82,614.43,-11341.62,0.0,0.0,0.0,0.0,6
16748.73,8903.654999999999,579.24,-11325.33,0.0,0.0,0.0,0.0,6
16853.67,9114.93,540.495,-11331.81,0.0,0.0,0.0,0.0,6
16832.34,9224.64,490.905,-11408.085,0.0,0.0,0.0,0.0,6
16666.829999999998,9186.93,417.195,-11525.13,0.0,0.0,0.0,0.0,6
16454.024999999998,9083.745,444.285,-11512.485,0.0,0.0,0.0,0.0,6
16312.545,9054.63,460.035,-11510.055,0.0,0.0,0.0,0.0,6
16313.445,9119.385,424.62,-11552.895,0.0,0.0,0.0,0.0,6
16445.88,9307.665,360.405,-11587.86,0.0,0.0,0.0,0.0,6
16695.225,9573.21,356.985,-11568.42,0.0,0.0,0.0,0.0,6
16915.815,9825.075,370.98,-11546.955,0.0,0.0,0.0,0.0,6
16927.155,9966.195,370.26,-11532.24,0.0,0.0,0.0,0.0,6
16829.73,9983.565,374.445,-11540.115,0.0,0.0,0.0,0.0,6
16694.325,9926.01,360.99,-11602.62,0.0,0.0,0.0,0.0,6
16560.945,9863.82,321.075,-11688.39,0.0,0.0,0.0,0.0,6
16415.235,9853.74,302.715,-11693.655,0.0,0.0,0.0,0.0,6
16514.73,9987.975,269.685,-11699.82,0.0,0.0,0.0,0.0,6
16776.09,10220.31,278.775,-11681.64,0.0,0.0,0.0,0.0,6
16963.92,10472.58,208.35,-11703.24,0.0,0.0,0.0,0.0,6
16983.765,10641.105,185.49,-11712.555,0.0,0.0,0.0,0.0,6
16947.045,10681.38,192.33,-11726.19,0.0,0.0,0.0,0.0,6
16895.925,10651.005,362.205,-11565.0,0.0,0.0,0.0,0.0,6
16757.1,10615.86,406.485,-11558.025,0.0,0.0,0.0,0.0,6
16444.71,10611.36,144.18,-11833.065,0.0,0.0,0.0,0.0,6
16291.665,10703.655,-135.67499999999998,-12079.845,0.0,0.0,0.0,0.0,6
16501.274999999998,10932.705,-137.20499999999998,-12065.715,0.0,0.0,0.0,0.0,6
16789.005,11174.265,-25.92,-11945.835,0.0,0.0,0.0,0.0,6
17067.105,11345.58,86.895,-11831.31,0.0,0.0,0.0,0.0,6
17131.184999999998,11407.32,148.14,-11788.56,0.0,0.0,0.0,0.0,6
16896.105,11349.54,25.56,-11920.68,0.0,0.0,0.0,0.0,6
16603.47,11263.725,-83.52,-12052.305,0.0,0.0,0.0,0.0,6
16379.955,11215.485,-82.755,-12036.735,0.0,0.0,0.0,0.0,6
16458.93,11274.885,-120.87,-12093.84,0.0,0.0,0.0,0.0,6
16613.145,11466.18,-111.465,-12087.36,0.0,0.0,0.0,0.0,6
16809.75,11766.015,-63.044999999999995,-12008.88,0.0,0.0,0.0,0.0,6
17052.12,12031.56,-22.545,-11917.755,0.0,0.0,0.0,0.0,6
17022.69,12143.7,-83.61,-11987.37,0.0,0.0,0.0,0.0,6
16871.895,12131.865,-116.37,-12078.99,0.0,0.0,0.0,0.0,6
16597.53,12056.04,-209.97,-12191.31,0.0,0.0,0.0,0.0,6
16432.829999999998,12000.555,-210.735,-12218.13,0.0,0.0,0.0,0.0,6
16395.21,12011.49,-262.62,-12278.565,0.0,0.0,0.0,0.0,6
16539.075,12151.755,-358.02,-12315.915,0.0,0.0,0.0,0.0,6
16681.05,12400.875,-509.22,-12325.095,0.0,0.0,0.0,0.0,6
16851.195,12652.245,-450.585,-12223.44,0.0,0.0,0.0,0.0,6
16941.42,12814.74,-364.185,-12175.425,0.0,0.0,0.0,0.0,6
16845.704999999998,12845.745,-414.09,-12211.695,0.0,0.0,0.0,0.0,6
16631.235,12799.035,-400.59,-12232.44,0.0,0.0,0.0,0.0,6
16443.54,12744.135,-390.555,-12282.705,0.0,0.0,0.0,0.0,6
16363.575,12747.555,-417.42,-12366.045,0.0,0.0,0.0,0.0,6
16397.82,12822.975,-427.05,-12330.99,0.0,0.0,0.0,0.0,6
16523.28,12982.995,-506.655,-12362.22,0.0,0.0,0.0,0.0,6
16700.535,13220.325,-580.3199999999999,-12404.7,0.0,0.0,0.0,0.0,6
16815.78,13412.745,-589.725,-12401.82,0.0,0.0,0.0,0.0,6
16793.01,13468.545,-571.725,-12385.575,0.0,0.0,0.0,0.0,6
16640.37,13429.485,-559.215,-12398.13,0.0,0.0,0.0,0.0,6
16423.965,13368.51,-578.0699999999999,-12454.56,0.0,0.0,0.0,0.0,6
16293.555,13324.365,-551.6999999999999,-12470.175,0.0,0.0,0.0,0.0,6
16289.91,13391.685,-573.5699999999999,-12494.52,0.0,0.0,0.0,0.0,6
16438.005,13577.94,-673.1999999999999,-12545.145,0.0,0.0,0.0,0.0,6
16680.105,13813.785,-670.14,-12497.76,0.0,0.0,0.0,0.0,6
16866.63,14021.91,-616.725,-12439.395,0.0,0.0,0.0,0.0,6
16764.434999999998,14126.85,-667.215,-12486.285,0.0,0.0,0.0,0.0,6
16570.575,14110.605,-727.155,-12569.085,0.0,0.0,0.0,0.0,6
16501.635,14050.125,-623.925,-12488.58,0.0,0.0,0.0,0.0,6
16371.675,14012.685,-620.235,-12528.945,0.0,0.0,0.0,0.0,6
16219.08,14045.13,-697.8149999999999,-12618.45,0.0,0.0,0.0,0.0,6
16354.44,14197.23,-721.8,-12602.385,0.0,0.0,0.0,0.0,6
16409.79,14417.28,-885.15,-12737.205,0.0,0.0,0.0,0.0,6
16519.635,14636.25,-1036.89,-12889.98,0.0,0.0,0.0,0.0,6
16688.385,14780.025,-974.97,-12850.695,0.0,0.0,0.0,0.0,6
16538.445,14791.815,-871.65,-12715.11,0.0,0.0,0.0,0.0,6
16365.915,14721.255,-843.93,-12707.64,0.0,0.0,0.0,0.0,6
16177.23,14640.705,-912.375,-12812.58,0.0,0.0,0.0,0.0,6
15994.215,14631.57,-990.585,-12896.28,0.0,0.0,0.0,0.0,6
16134.435,14735.475,-966.555,-12872.07,0.0,0.0,0.0,0.0,6
16398.09,14943.285,-949.185,-12803.04,0.0,0.0,0.0,0.0,6
16538.04,15161.76,-1006.92,-12810.78,0.0,0.0,0.0,0.0,6
16623.09,15341.58,-989.19,-12790.53,0.0,0.0,0.0,0.0,6
16546.545,15410.385,-1003.545,-12801.465,0.0,0.0,0.0,0.0,6
16373.43,15353.955,-1020.42,-12857.175,0.0,0.0,0.0,0.0,6
16151.805,15264.27,-973.17,-12886.11,0.0,0.0,0.0,0.0,6
15989.895,15212.475,-992.745,-12935.115,0.0,0.0,0.0,0.0,6
16055.235,15280.605,-1026.405,-12958.335,0.0,0.0,0.0,0.0,6
16309.17,15470.775,-1017.54,-12945.24,0.0,0.0,0.0,0.0,6
16571.204999999998,15701.265,-868.4549999999999,-12766.545,0.0,0.0,0.0,0.0,6
16683.255,15873.705,-920.79,-12794.85,0.0,0.0,0.0,0.0,6
16496.64,15930.27,-1030.41,-12868.695,0.0,0.0,0.0,0.0,6
16326.9,15892.56,-1113.21,-12994.38,0.0,0.0,0.0,0.0,6
16093.44,15823.71,-1137.105,-13045.275,0.0,0.0,0.0,0.0,6
15972.435,15774.255,-1072.755,-13028.58,0.0,0.0,0.0,0.0,6
15961.32,15782.805,-1080.495,-13056.3,0.0,0.0,0.0,0.0,6
16063.2,15905.745,-1183.59,-13123.395,0.0,0.0,0.0,0.0,6
16262.145,16114.455,-1209.78,-13096.17,0.0,0.0,0.0,0.0,6
16474.184999999998,16314.39,-1163.655,-13025.295,0.0,0.0,0.0,0.0,6
16528.14,16424.28,-1115.82,-12975.795,0.0,0.0,0.0,0.0,6
16448.13,16409.295,-1075.14,-12967.875,0.0,0.0,0.0,0.0,6
16309.575,16299.81,-1075.365,-13006.485,0.0,0.0,0.0,0.0,6
16120.17,16197.84,-1030.68,-12984.705,0.0,0.0,0.0,0.0,6
15854.13,16184.16,-1203.75,-13171.185,0.0,0.0,0.0,0.0,6
15929.1,16299.045,-1263.33,-13211.415,0.0,0.0,0.0,0.0,6
16236.72,16501.184999999998,-1181.115,-13099.905,0.0,0.0,0.0,0.0,6
16537.635,16723.934999999998,-1054.035,-12951.36,0.0,0.0,0.0,0.0,6
16583.67,16875.495,-1058.94,-12949.38,0.0,0.0,0.0,0.0,6
16424.145,16887.645,-1148.265,-13069.89,0.0,0.0,0.0,0.0,6
16294.41,16798.68,-1095.48,-13062.24,0.0,0.0,0.0,0.0,6
16125.885,16689.87,-1045.08,-13070.655,0.0,0.0,0.0,0.0,6
15952.545,16650.135,-1145.34,-13172.49,0.0,0.0,0.0,0.0,6
15891.39,16720.785,-1317.555,-13320.495,0.0,0.0,0.0,0.0,6
15997.23,16903.485,-1471.59,-13392.72,0.0,0.0,0.0,0.0,6
16292.295,17124.21,-1386.9,-13267.935,0.0,0.0,0.0,0.0,6
16462.035,17303.535,-1332.855,-13257.72,0.0,0.0,0.0,0.0,6
16424.46,17378.864999999998,-1330.155,-13253.58,0.0,0.0,0.0,0.0,6
16179.57,17318.34,-1298.2949999999998,-13189.365,0.0,0.0,0.0,0.0,6
16047.36,17210.88,-1181.565,-13140.18,0.0,0.0,0.0,0.0,6
15850.125,17120.25,-1289.97,-13263.255,0.0,0.0,0.0,0.0,6
15821.91,17120.204999999998,-1323.405,-13277.385,0.0,0.0,0.0,0.0,6
16031.295,17241.84,-1361.34,-13342.725,0.0,0.0,0.0,0.0,6
16240.905,17423.684999999998,-1442.61,-13408.965,0.0,0.0,0.0,0.0,6
16375.725,17612.73,-1360.1699999999998,-13279.365,0.0,0.0,0.0,0.0,6
16387.829999999998,17722.575,-1285.9199999999998,-13200.39,0.0,0.0,0.0,0.0,6
16248.51,17701.2,-1293.345,-13225.77,0.0,0.0,0.0,0.0,6
16111.485,17613.675,-1241.505,-13211.595,0.0,0.0,0.0,0.0,6
15940.8,17523.27,-1248.7949999999998,-13252.275,0.0,0.0,0.0,0.0,6
15837.12,17516.295,-1273.05,-13271.22,0.0,0.0,0.0,0.0,6
15849.945,17640.809999999998,-1402.29,-13368.735,0.0,0.0,0.0,0.0,6
15988.32,17850.059999999998,-1518.705,-13450.14,0.0,0.0,0.0,0.0,6
16219.26,18046.845,-1484.325,-13394.34,0.0,0.0,0.0,0.0,6
16349.49,18174.06,-1414.3049999999998,-13310.325,0.0,0.0,0.0,0.0,6
16254.36,18206.37,-1403.865,-13311.9,0.0,0.0,0.0,0.0,6
16081.83,18147.24,-1395.9,-13341.015,0.0,0.0,0.0,0.0,6
15870.195,18043.2,-1420.605,-13398.615,0.0,0.0,0.0,0.0,6
15688.755,17986.5,-1464.345,-13459.095,0.0,0.0,0.0,0.0,6
15766.92,18049.635,-1469.34,-13447.62,0.0,0.0,0.0,0.0,6
15989.49,18239.13,-1456.74,-13392.315,0.0,0.0,0.0,0.0,6
16243.605,18456.57,-1429.29,-13344.3,0.0,0.0,0.0,0.0,6
16393.86,18606.285,-1410.7949999999998,-13313.115,0.0,0.0,0.0,0.0,6
16344.855,18652.23,-1400.13,-13303.08,0.0,0.0,0.0,0.0,6
16173.405,18593.505,-1415.115,-13340.97,0.0,0.0,0.0,0.0,6
15972.615,18501.255,-1439.595,-13390.02,0.0,0.0,0.0,0.0,6
15855.21,18441.585,-1410.9299999999998,-13410.09,0.0,0.0,0.0,0.0,6
15752.925,18487.395,-1454.625,-13458.69,0.0,0.0,0.0,0.0,6
15907.455,18663.345,-1524.105,-13491.72,0.0,0.0,0.0,0.0,6
16126.785,18891.585,-1437.885,-13340.43,0.0,0.0,0.0,0.0,6
16349.76,19081.35,-1409.715,-13292.55,0.0,0.0,0.0,0.0,6
16367.355,19180.935,-1382.715,-13262.265,0.0,0.0,0.0,0.0,6
16273.845,19151.145,-1363.77,-13254.795,0.0,0.0,0.0,0.0,6
16001.415,19060.56,-1447.965,-13361.355,0.0,0.0,0.0,0.0,6
15773.58,18981.72,-1476.855,-13426.605,0.0,0.0,0.0,0.0,6
15649.605,18972.36,-1554.7949999999998,-13513.59,0.0,0.0,0.0,0.0,6
15772.185,19084.995,-1646.73,-13608.405,0.0,0.0,0.0,0.0,6
16003.215,19282.095,-1616.6699999999998,-13529.52,0.0,0.0,0.0,0.0,6
16282.62,19475.73,-1538.28,-13439.07,0.0,0.0,0.0,0.0,6
16464.735,19590.75,-1407.195,-13315.68,0.0,0.0,0.0,0.0,6
16329.33,19565.01,-1428.7949999999998,-13341.33,0.0,0.0,0.0,0.0,6
16012.485,19452.96,-1542.51,-13464.81,0.0,0.0,0.0,0.0,6
15774.93,19354.41,-1551.825,-13509.855,0.0,0.0,0.0,0.0,6
15577.515,19305.045,-1667.7,-13616.73,0.0,0.0,0.0,0.0,6
15664.545,19374.66,-1728.99,-13605.3,0.0,0.0,0.0,0.0,6
15922.125,19563.66,-1710.0449999999998,-13586.265,0.0,0.0,0.0,0.0,6
16181.73,19768.815,-1692.27,-13530.015,0.0,0.0,0.0,0.0,6
16256.7,19908.675,-1669.23,-13455.45,0.0,0.0,0.0,0.0,6
16228.71,19935.99,-1596.645,-13421.745,0.0,0.0,0.0,0.0,6
16066.98,19864.17,-1533.195,-13432.95,0.0,0.0,0.0,0.0,6
15832.665,19770.795,-1589.94,-13519.89,0.0,0.0,0.0,0.0,6
15607.035,19702.125,-1681.785,-13612.815,0.0,0.0,0.0,0.0,6
15641.055,19747.845,-1686.735,-13615.605,0.0,0.0,0.0,0.0,6
15943.455,19905.795,-1651.905,-13578.57,0.0,0.0,0.0,0.0,6
16103.97,20111.76,-1584.315,-13452.57,0.0,0.0,0.0,0.0,6
16308.9,20296.53,-1529.28,-13376.925,0.0,0.0,0.0,0.0,6
16394.579999999998,20373.615,-1414.485,-13267.485,0.0,0.0,0.0,0.0,6
16300.89,20321.82,-1371.735,-13232.16,0.0,0.0,0.0,0.0,6
15907.185,20172.78,-1586.115,-13480.515,0.0,0.0,0.0,0.0,6
15580.305,20054.565,-1769.355,-13691.25,0.0,0.0,0.0,0.0,6
15528.195,20040.12,-1812.915,-13741.245,0.0,0.0,0.0,0.0,6
15711.705,20160.405,-1826.055,-13765.59,0.0,0.0,0.0,0.0,6
16029.9,20370.735,-1724.31,-13642.38,0.0,0.0,0.0,0.0,6
16243.695,20571.255,-1727.55,-13592.34,0.0,0.0,0.0,0.0,6
16202.88,20664.27,-1675.215,-13479.255,0.0,0.0,0.0,0.0,6
16093.935,20651.895,-1593.1799999999998,-13440.87,0.0,0.0,0.0,0.0,6
15831.09,20551.095,-1655.73,-13547.25,0.0,0.0,0.0,0.0,6
15617.43,20419.515,-1730.5649999999998,-13659.705,0.0,0.0,0.0,0.0,6
15554.385,20366.82,-1738.215,-13689.0,0.0,0.0,0.0,0.0,6
15782.76,20456.37,-1696.5,-13630.5,0.0,0.0,0.0,0.0,6
16023.555,20657.925,-1687.005,-13595.355,0.0,0.0,0.0,0.0,6
16079.04,20877.03,-1767.105,-13642.065,0.0,0.0,0.0,0.0,6
16119.855,21004.02,-1810.395,-13681.755,0.0,0.0,0.0,0.0,6
16093.035,21011.94,-1706.6699999999998,-13585.86,0.0,0.0,0.0,0.0,6
15918.03,20904.615,-1643.625,-13565.34,0.0,0.0,0.0,0.0,6
15666.48,20768.13,-1726.695,-13700.565,0.0,0.0,0.0,0.0,6
15350.76,20688.84,-1807.29,-13794.075,0.0,0.0,0.0,0.0,6
15434.1,20746.71,-1807.92,-13774.905,0.0,0.0,0.0,0.0,6
15669.585,20949.345,-1855.53,-13776.615,0.0,0.0,0.0,0.0,6
15960.87,21185.415,-1869.21,-13753.755,0.0,0.0,0.0,0.0,6
16192.215,21385.08,-1752.435,-13615.875,0.0,0.0,0.0,0.0,6
16192.89,21435.21,-1730.52,-13609.71,0.0,0.0,0.0,0.0,6
16029.54,21362.805,-1732.275,-13683.69,0.0,0.0,0.0,0.0,6
15762.375,21234.645,-1768.905,-13741.74,0.0,0.0,0.0,0.0,6
15519.735,21114.0,-1803.645,-13798.89,0.0,0.0,0.0,0.0,6
15557.13,21116.52,-1823.04,-13847.535,0.0,0.0,0.0,0.0,6
15653.295,21263.985,-1855.08,-13825.845,0.0,0.0,0.0,0.0,6
15846.93,21476.745,-1841.49,-13759.02,0.0,0.0,0.0,0.0,6
16040.16,21677.58,-1762.605,-13675.05,0.0,0.0,0.0,0.0,6
16105.59,21773.97,-1744.515,-13676.895,0.0,0.0,0.0,0.0,6
16001.685,21744.45,-1795.095,-13739.085,0.0,0.0,0.0,0.0,6
15767.865,21615.165,-1838.88,-13790.925,0.0,0.0,0.0,0.0,6
15554.925,21487.455,-1837.8,-13850.145,0.0,0.0,0.0,0.0,6
15405.57,21446.415,-1875.465,-13900.95,0.0,0.0,0.0,0.0,6
15519.195,21554.37,-1887.93,-13898.34,0.0,0.0,0.0,0.0,6
15793.83,21793.41,-1831.725,-13822.2,0.0,0.0,0.0,0.0,6
16053.12,22030.83,-1745.145,-13715.1,0.0,0.0,0.0,0.0,6
16124.85,22158.045,-1778.6699999999998,-13714.065,0.0,0.0,0.0,0.0,6
15970.905,22143.87,-1834.335,-13787.19,0.0,0.0,0.0,0.0,6
15861.285,22049.955,-1777.8149999999998,-13787.91,0.0,0.0,0.0,0.0,6
15650.73,21930.21,-1749.375,-13775.625,0.0,0.0,0.0,0.0,6
15454.485,21859.83,-1820.16,-13871.655,0.0,0.0,0.0,0.0,6
15421.635,21906.99,-1911.555,-13953.51,0.0,0.0,0.0,0.0,6
15583.905,22093.335,-1993.365,-14001.48,0.0,0.0,0.0,0.0,6
15854.085,22311.135,-1971.63,-13957.83,0.0,0.0,0.0,0.0,6
15992.595,22477.14,-1917.495,-13892.85,0.0,0.0,0.0,0.0,6
16014.735,22523.805,-1827.405,-13837.095,0.0,0.0,0.0,0.0,6
15901.155,22428.585,-1779.705,-13828.815,0.0,0.0,0.0,0.0,6
15668.595,22279.41,-1815.39,-13876.155,0.0,0.0,0.0,0.0,6
15477.705,22179.285,-1878.615,-13924.665,0.0,0.0,0.0,0.0,6
15443.235,22192.875,-1952.505,-13986.945,0.0,0.0,0.0,0.0,6
15605.055,22343.31,-1913.13,-13948.155,0.0,0.0,0.0,0.0,6
15815.115,22564.89,-1893.015,-13918.365,0.0,0.0,0.0,0.0,6
16005.78,22763.295,-1841.445,-13833.54,0.0,0.0,0.0,0.0,6
16028.955,22841.1,-1813.77,-13814.28,0.0,0.0,0.0,0.0,6
15874.47,22776.795,-1815.93,-13859.145,0.0,0.0,0.0,0.0,6
15556.725,22645.485,-1886.85,-13954.635,0.0,0.0,0.0,0.0,6
15339.96,22533.03,-1936.755,-14002.74,0.0,0.0,0.0,0.0,6
15221.88,22496.76,-2020.995,-14081.535,0.0,0.0,0.0,0.0,6
15432.84,22598.504999999997,-2016.045,-14078.43,0.0,0.0,0.0,0.0,6
15744.285,22803.615,-1963.215,-13996.98,0.0,0.0,0.0,0.0,6
15968.205,23028.3,-1962.36,-13980.15,0.0,0.0,0.0,0.0,6
15949.35,23150.925,-1972.44,-13987.395,0.0,0.0,0.0,0.0,6
15870.915,23112.585,-1920.015,-13940.37,0.0,0.0,0.0,0.0,6
15687.99,22965.795,-1872.225,-13913.01,0.0,0.0,0.0,0.0,6
15472.755,22820.85,-1917.54,-13979.61,0.0,0.0,0.0,0.0,6
15308.145,22767.435,-1987.74,-14070.015,0.0,0.0,0.0,0.0,6
15458.67,22845.15,-1967.805,-14049.27,0.0,0.0,0.0,0.0,6
15661.035,23053.77,-1926.405,-13961.88,0.0,0.0,0.0,0.0,6
15789.33,23272.56,-1891.62,-13921.11,0.0,0.0,0.0,0.0,6
15945.75,23435.91,-1862.595,-13905.855,0.0,0.0,0.0,0.0,6
15940.71,23469.075,-1856.475,-13910.13,0.0,0.0,0.0,0.0,6
15713.73,23360.895,-1939.5,-13983.615,0.0,0.0,0.0,0.0,6
15510.06,23219.504999999997,-1930.14,-13979.295,0.0,0.0,0.0,0.0,6
15347.52,23134.635,-1930.275,-14015.385,0.0,0.0,0.0,0.0,6
15396.705,23157.629999999997,-1904.445,-13999.545,0.0,0.0,0.0,0.0,6
15558.255,23323.095,-1924.065,-13971.015,0.0,0.0,0.0,0.0,6
15677.01,23564.205,-2038.59,-14030.37,0.0,0.0,0.0,0.0,6
15752.025,23761.71,-2135.79,-14136.39,0.0,0.0,0.0,0.0,6
15805.71,23840.145,-2073.15,-14121.945,0.0,0.0,0.0,0.0,6
15731.595,23780.7,-1995.57,-14074.29,0.0,0.0,0.0,0.0,6
15580.62,23634.81,-1980.675,-14072.625,0.0,0.0,0.0,0.0,6
15292.755,23508.09,-1988.82,-14049.405,0.0,0.0,0.0,0.0,6
15208.56,23491.08,-2071.665,-14110.38,0.0,0.0,0.0,0.0,6
15443.01,23621.805,-1968.345,-14002.74,0.0,0.0,0.0,0.0,6
15662.835,23835.51,-1903.365,-13950.315,0.0,0.0,0.0,0.0,6
15844.275,24035.129999999997,-1958.535,-13974.84,0.0,0.0,0.0,0.0,6
15839.955,24123.33,-2011.095,-14001.39,0.0,0.0,0.0,0.0,6
15827.76,24080.085,-1916.37,-13910.265,0.0,0.0,0.0,0.0,6
15657.12,23936.76,-1908.18,-13938.57,0.0,0.0,0.0,0.0,6
15367.5,23775.254999999997,-1979.28,-14047.02,0.0,0.0,0.0,0.0,6
15233.22,23719.32,-1987.155,-14076.495,0.0,0.0,0.0,0.0,6
15291.495,23797.395,-2066.265,-14128.155,0.0,0.0,0.0,0.0,6
15450.795,24001.335,-2132.64,-14155.65,0.0,0.0,0.0,0.0,6
15631.155,24235.47,-2141.685,-14149.755,0.0,0.0,0.0,0.0,6
15768.72,24380.91,-2060.64,-14054.67,0.0,0.0,0.0,0.0,6
15710.58,24359.805,-2025.135,-14025.69,0.0,0.0,0.0,0.0,6
15605.955,24230.205,-1987.065,-14017.815,0.0,0.0,0.0,0.0,6
15499.485,24074.775,-1962.045,-14044.725,0.0,0.0,0.0,0.0,6
15210.495,23969.43,-1995.345,-14085.81,0.0,0.0,0.0,0.0,6
15129.99,23989.455,-2039.49,-14113.575,0.0,0.0,0.0,0.0,6
15432.255,24178.995,-1989.495,-14045.94,0.0,0.0,0.0,0.0,6
15834.375,24423.435,-1879.425,-13918.635,0.0,0.0,0.0,0.0,6
15945.435,24587.145,-1966.815,-13967.01,0.0,0.0,0.0,0.0,6
15738.03,24627.735,-2071.7999999999997,-14079.105,0.0,0.0,0.0,0.0,6
15573.465,24524.595,-2085.48,-14145.075,0.0,0.0,0.0,0.0,6
15450.075,24358.004999999997,-2008.215,-14085.54,0.0,0.0,0.0,0.0,6
15359.31,24228.135,-1963.53,-14089.545,0.0,0.0,0.0,0.0,6
15347.88,24218.73,-1880.505,-14048.73,0.0,0.0,0.0,0.0,6
15458.94,24367.77,-1919.43,-14062.185,0.0,0.0,0.0,0.0,6
15611.76,24612.21,-2023.155,-14133.645,0.0,0.0,0.0,0.0,6
15682.5,24824.07,-2099.88,-14151.375,0.0,0.0,0.0,0.0,6
15729.435,24901.2,-2097.63,-14052.96,0.0,0.0,0.0,0.0,6
15654.87,24812.19,-2012.94,-13965.12,0.0,0.0,0.0,0.0,6
15512.805,24623.46,-1969.83,-13972.14,0.0,0.0,0.0,0.0,6
15371.73,24454.125,-1968.39,-14063.94,0.0,0.0,0.0,0.0,6
15369.3,24390.945,-1896.39,-14059.125,0.0,0.0,0.0,0.0,6
15460.875,24468.705,-1890.585,-14015.745,0.0,0.0,0.0,0.0,6
15556.815,24670.44,-2024.955,-14073.075,0.0,0.0,0.0,0.0,6
15645.51,24885.45,-2142.09,-14169.87,0.0,0.0,0.0,0.0,6
15730.83,25009.155,-2098.665,-14120.865,0.0,0.0,0.0,0.0,6
15742.53,24979.86,-1937.34,-13977.09,0.0,0.0,0.0,0.0,6
15652.935,24820.02,-1847.07,-13916.025,0.0,0.0,0.0,0.0,6
15500.025,24639.254999999997,-1882.89,-13999.095,0.0,0.0,0.0,0.0,6
15322.905,24545.385,-1977.12,-14148.45,0.0,0.0,0.0,0.0,6
15258.78,24578.235,-1995.975,-14140.17,0.0,0.0,0.0,0.0,6
15458.715,24763.545,-1988.235,-14092.38,0.0,0.0,0.0,0.0,6
15633.72,25005.24,-2038.05,-14086.98,0.0,0.0,0.0,0.0,6
15797.7,25179.254999999997,-2023.47,-14057.1,0.0,0.0,0.0,0.0,6
15795.36,25192.035,-1977.525,-14017.545,0.0,0.0,0.0,0.0,6
15708.645,25050.645,-1897.965,-13974.165,0.0,0.0,0.0,0.0,6
15625.62,24862.545,-1773.54,-13892.445,0.0,0.0,0.0,0.0,6
15400.71,24700.41,-1796.22,-13936.005,0.0,0.0,0.0,0.0,6
15295.455,24671.43,-1943.46,-14094.315,0.0,0.0,0.0,0.0,6
15377.04,24838.605,-2008.89,-14116.05,0.0,0.0,0.0,0.0,6
15576.12,25105.545,-1996.83,-14076.18,0.0,0.0,0.0,0.0,6
15750.81,25325.64,-1972.845,-14033.88,0.0,0.0,0.0,0.0,6
15837.165,25389.225,-1908.72,-13964.805,0.0,0.0,0.0,0.0,6
15799.5,25299.045,-1857.87,-13936.14,0.0,0.0,0.0,0.0,6
15655.905,25117.74,-1838.745,-13956.345,0.0,0.0,0.0,0.0,6
15478.92,24946.47,-1834.11,-13976.415,0.0,0.0,0.0,0.0,6
15392.61,24896.205,-1797.3,-13952.565,0.0,0.0,0.0,0.0,6
15488.505,25027.245,-1789.83,-13927.59,0.0,0.0,0.0,0.0,6
15624.9,25262.37,-1889.325,-13995.18,0.0,0.0,0.0,0.0,6
15732.72,25491.825,-1946.475,-14023.89,0.0,0.0,0.0,0.0,6
15865.74,25615.62,-1890.765,-13974.795,0.0,0.0,0.0,0.0,6
15855.3,25564.41,-1820.07,-13925.43,0.0,0.0,0.0,0.0,6
15702.66,25375.41,-1773.09,-13902.255,0.0,0.0,0.0,0.0,6
15565.635,25196.985,-1728.0,-13916.34,0.0,0.0,0.0,0.0,6
15408.405,25110.135,-1750.995,-13953.87,0.0,0.0,0.0,0.0,6
15411.42,25151.175,-1867.14,-14028.165,0.0,0.0,0.0,0.0,6
15595.245,25367.355,-1847.7,-13974.3,0.0,0.0,0.0,0.0,6
15766.65,25600.635,-1857.87,-13985.865,0.0,0.0,0.0,0.0,6
15881.985,25758.81,-1871.01,-13972.41,0.0,0.0,0.0,0.0,6
15858.72,25776.99,-1835.235,-13932.315,0.0,0.0,0.0,0.0,6
15811.38,25664.535,-1731.915,-13882.635,0.0,0.0,0.0,0.0,6
15700.095,25496.82,-1625.22,-13898.79,0.0,0.0,0.0,0.0,6
15496.56,25366.455,-1646.82,-14005.17,0.0,0.0,0.0,0.0,6
15478.2,25385.31,-1653.9299999999998,-14000.355,0.0,0.0,0.0,0.0,6
15614.28,25563.825,-1819.71,-14023.98,0.0,0.0,0.0,0.0,6
15724.485,25809.66,-2012.265,-14052.825,0.0,0.0,0.0,0.0,6
15860.025,26006.94,-1970.775,-13987.305,0.0,0.0,0.0,0.0,6
15885.135,26063.775,-1847.7,-13910.85,0.0,0.0,0.0,0.0,6
15779.34,25966.44,-1825.11,-13914.045,0.0,0.0,0.0,0.0,6
15618.06,25803.585,-1752.12,-13908.105,0.0,0.0,0.0,0.0,6
15497.91,25655.715,-1689.885,-13898.43,0.0,0.0,0.0,0.0,6
15452.685,25622.46,-1701.09,-13911.975,0.0,0.0,0.0,0.0,6
15519.915,25748.955,-1774.215,-13968.72,0.0,0.0,0.0,0.0,6
15636.06,25987.905,-1876.41,-14044.995,0.0,0.0,0.0,0.0,6
15760.8,26209.8,-1917.9,-14054.49,0.0,0.0,0.0,0.0,6
15861.195,26297.28,-1875.105,-14013.945,0.0,0.0,0.0,0.0,6
15879.51,26229.735,-1738.89,-13903.92,0.0,0.0,0.0,0.0,6
15726.51,26049.645,-1662.525,-13861.17,0.0,0.0,0.0,0.0,6
15524.28,25861.095,-1742.31,-13968.945,0.0,0.0,0.0,0.0,6
15369.075,25779.42,-1772.145,-13996.305,0.0,0.0,0.0,0.0,6
15420.375,25835.895,-1786.005,-14016.105,0.0,0.0,0.0,0.0,6
15587.595,26027.64,-1800.0449999999998,-14001.93,0.0,0.0,0.0,0.0,6
15841.26,26236.395,-1753.245,-13924.575,0.0,0.0,0.0,0.0,6
15983.415,26371.35,-1706.31,-13869.405,0.0,0.0,0.0,0.0,6
15962.67,26351.145,-1649.2949999999998,-13844.25,0.0,0.0,0.0,0.0,6
15866.82,26192.655,-1586.52,-13820.355,0.0,0.0,0.0,0.0,6
15679.17,25994.205,-1614.5549999999998,-13884.255,0.0,0.0,0.0,0.0,6
15484.905,25875.629999999997,-1672.155,-13946.265,0.0,0.0,0.0,0.0,6
15465.285,25896.96,-1752.705,-13977.27,0.0,0.0,0.0,0.0,6
15641.46,26085.285,-1768.275,-13986.36,0.0,0.0,0.0,0.0,6
15794.505,26325.675,-1747.08,-13944.195,0.0,0.0,0.0,0.0,6
15987.78,26512.605,-1703.52,-13863.33,0.0,0.0,0.0,0.0,6
16028.28,26557.56,-1615.275,-13772.7,0.0,0.0,0.0,0.0,6
15852.78,26437.275,-1644.7949999999998,-13832.325,0.0,0.0,0.0,0.0,6
15676.74,26254.44,-1646.955,-13873.005,0.0,0.0,0.0,0.0,6
15589.035,26092.305,-1573.515,-13846.995,0.0,0.0,0.0,0.0,6
15464.61,26045.91,-1573.065,-13827.825,0.0,0.0,0.0,0.0,6
15589.26,26175.555,-1637.595,-13879.845,0.0,0.0,0.0,0.0,6
15761.655,26397.675,-1688.9399999999998,-13901.04,0.0,0.0,0.0,0.0,6
16003.71,26611.83,-1596.015,-13782.735,0.0,0.0,0.0,0.0,6
16079.67,26691.254999999997,-1582.245,-13770.495,0.0,0.0,0.0,0.0,6
16028.145,26614.26,-1522.53,-13728.735,0.0,0.0,0.0,0.0,6
15884.82,26437.275,-1479.4199999999998,-13693.5,0.0,0.0,0.0,0.0,6
15680.745,26266.77,-1517.445,-13753.395,0.0,0.0,0.0,0.0,6
15491.835,26182.08,-1572.525,-13858.02,0.0,0.0,0.0,0.0,6
15529.455,26241.795,-1622.34,-13899.6,0.0,0.0,0.0,0.0,6
15761.025,26435.205,-1666.215,-13904.775,0.0,0.0,0.0,0.0,6
15995.61,26651.295,-1599.345,-13802.67,0.0,0.0,0.0,0.0,6
16037.28,26767.935,-1594.3049999999998,-13759.245,0.0,0.0,0.0,0.0,6
16058.88,26725.455,-1529.0549999999998,-13705.605,0.0,0.0,0.0,0.0,6
16028.82,26558.1,-1398.015,-13636.53,0.0,0.0,0.0,0.0,6
15857.865,26378.82,-1342.845,-13608.855,0.0,0.0,0.0,0.0,6
15658.02,26262.945,-1388.25,-13655.61,0.0,0.0,0.0,0.0,6
15638.04,26271.855,-1457.82,-13721.895,0.0,0.0,0.0,0.0,6
15813.72,26440.56,-1469.2949999999998,-13714.83,0.0,0.0,0.0,0.0,6
16020.27,26650.935,-1472.04,-13686.03,0.0,0.0,0.0,0.0,6
16187.13,26832.465,-1459.71,-13644.405,0.0,0.0,0.0,0.0,6
16211.025,26875.664999999997,-1399.59,-13615.2,0.0,0.0,0.0,0.0,6
16167.735,26769.51,-1324.755,-13588.83,0.0,0.0,0.0,0.0,6
15995.52,26589.555,-1294.74,-13580.865,0.0,0.0,0.0,0.0,6
15744.015,26442.765,-1338.93,-13604.67,0.0,0.0,0.0,0.0,6
15653.07,26416.26,-1411.245,-13649.355,0.0,0.0,0.0,0.0,6
15779.7,26554.635,-1472.13,-13679.37,0.0,0.0,0.0,0.0,6
16005.87,26796.51,-1432.845,-13635.63,0.0,0.0,0.0,0.0,6
16254.81,27009.81,-1334.565,-13523.22,0.0,0.0,0.0,0.0,6
16327.53,27066.96,-1297.845,-13462.92,0.0,0.0,0.0,0.0,6
16229.97,26980.515,-1275.525,-13458.15,0.0,0.0,0.0,0.0,6
16101.54,26820.225,-1211.355,-13438.17,0.0,0.0,0.0,0.0,6
15959.97,26667.36,-1154.565,-13421.43,0.0,0.0,0.0,0.0,6
15782.535,26602.289999999997,-1266.66,-13544.01,0.0,0.0,0.0,0.0,6
15796.8,26676.855,-1392.12,-13642.56,0.0,0.0,0.0,0.0,6
15990.3,26894.879999999997,-1410.84,-13640.355,0.0,0.0,0.0,0.0,6
16218.495,27126.629999999997,-1308.825,-13508.145,0.0,0.0,0.0,0.0,6
16348.185,27264.06,-1250.01,-13435.92,0.0,0.0,0.0,0.0,6
16313.04,27230.445,-1227.33,-13437.045,0.0,0.0,0.0,0.0,6
16114.77,27068.67,-1227.285,-13450.365,0.0,0.0,0.0,0.0,6
15919.965,26896.815,-1232.415,-13476.15,0.0,0.0,0.0,0.0,6
15795.0,26796.735,-1223.73,-13492.89,0.0,0.0,0.0,0.0,6
15858.765,26836.02,-1254.33,-13526.37,0.0,0.0,0.0,0.0,6
16070.805,27036.045,-1253.07,-13500.18,0.0,0.0,0.0,0.0,6
16306.245,27275.805,-1174.095,-13378.14,0.0,0.0,0.0,0.0,6
16419.015,27451.98,-1180.395,-13346.145,0.0,0.0,0.0,0.0,6
16373.205,27464.085,-1177.83,-13358.925,0.0,0.0,0.0,0.0,6
16271.1,27350.46,-1149.39,-13348.17,0.0,0.0,0.0,0.0,6
15991.245,27178.425,-1260.18,-13472.28,0.0,0.0,0.0,0.0,6
15822.81,27061.245,-1273.95,-13540.41,0.0,0.0,0.0,0.0,6
15789.195,27072.81,-1315.485,-13596.345,0.0,0.0,0.0,0.0,6
15840.27,27254.115,-1399.05,-13617.63,0.0,0.0,0.0,0.0,6
16043.67,27519.3,-1423.62,-13628.79,0.0,0.0,0.0,0.0,6
16389.675,27748.935,-1308.69,-13515.255,0.0,0.0,0.0,0.0,6
16398.989999999998,27810.045,-1224.81,-13401.9,0.0,0.0,0.0,0.0,6
16209.225,27706.185,-1287.0449999999998,-13494.87,0.0,0.0,0.0,0.0,6
15937.245,27522.765,-1273.815,-13495.095,0.0,0.0,0.0,0.0,6
15791.85,27358.605,-1267.83,-13513.275,0.0,0.0,0.0,0.0,6
15700.185,27294.435,-1301.715,-13570.425,0.0,0.0,0.0,0.0,6
15786.18,27366.525,-1334.07,-13587.615,0.0,0.0,0.0,0.0,6
15984.18,27562.635,-1361.025,-13578.525,0.0,0.0,0.0,0.0,6
16162.695,27792.9,-1384.245,-13545.855,0.0,0.0,0.0,0.0,6
16234.605,27920.879999999997,-1389.105,-13517.19,0.0,0.0,0.0,0.0,6
16167.735,27894.735,-1364.445,-13526.64,0.0,0.0,0.0,0.0,6
16068.105,27749.655,-1298.52,-13545.72,0.0,0.0,0.0,0.0,6
15804.09,27577.575,-1321.245,-13559.355,0.0,0.0,0.0,0.0,6
15607.62,27471.914999999997,-1403.415,-13634.82,0.0,0.0,0.0,0.0,6
15653.88,27518.175,-1439.865,-13658.625,0.0,0.0,0.0,0.0,6
15830.46,27717.705,-1464.435,-13661.28,0.0,0.0,0.0,0.0,6
16022.025,27960.03,-1440.135,-13598.73,0.0,0.0,0.0,0.0,6
16156.575,28130.355,-1393.83,-13546.08,0.0,0.0,0.0,0.0,6
16099.245,28134.36,-1373.22,-13529.34,0.0,0.0,0.0,0.0,6
15916.32,27991.664999999997,-1402.2,-13583.97,0.0,0.0,0.0,0.0,6
15766.56,27803.385,-1384.74,-13592.61,0.0,0.0,0.0,0.0,6
15632.64,27677.835,-1396.845,-13634.865,0.0,0.0,0.0,0.0,6
15585.975,27690.164999999997,-1467.765,-13700.205,0.0,0.0,0.0,0.0,6
15685.11,27847.395,-1511.73,-13705.92,0.0,0.0,0.0,0.0,6
15914.61,28079.504999999997,-1496.61,-13682.79,0.0,0.0,0.0,0.0,6
16105.005,28269.945,-1501.65,-13669.47,0.0,0.0,0.0,0.0,6
16042.23,28327.41,-1465.02,-13619.97,0.0,0.0,0.0,0.0,6
15946.245,28217.7,-1403.19,-13570.245,0.0,0.0,0.0,0.0,6
15722.865,28012.995,-1471.995,-13663.215,0.0,0.0,0.0,0.0,6
15568.29,27853.92,-1430.0549999999998,-13675.995,0.0,0.0,0.0,0.0,6
15516.18,27816.435,-1421.64,-13682.25,0.0,0.0,0.0,0.0,6
15594.975,27936.585,-1480.23,-13715.19,0.0,0.0,0.0,0.0,6
15725.43,28165.545,-1562.6699999999998,-13755.6,0.0,0.0,0.0,0.0,6
15854.085,28377.18,-1619.1899999999998,-13780.98,0.0,0.0,0.0,0.0,6
15980.31,28489.185,-1546.515,-13708.17,0.0,0.0,0.0,0.0,6
15947.46,28430.235,-1482.525,-13665.105,0.0,0.0,0.0,0.0,6
15712.695,28247.22,-1487.52,-13689.27,0.0,0.0,0.0,0.0,6
15549.885,28077.345,-1468.665,-13700.52,0.0,0.0,0.0,0.0,6
15416.505,28004.94,-1512.405,-13768.335,0.0,0.0,0.0,0.0,6
15451.335,28073.835,-1553.085,-13808.79,0.0,0.0,0.0,0.0,6
15559.65,28267.83,-1664.505,-13856.355,0.0,0.0,0.0,0.0,6
15777.855,28499.76,-1656.63,-13810.815,0.0,0.0,0.0,0.0,6
15911.595,28651.59,-1606.59,-13755.735,0.0,0.0,0.0,0.0,6
15872.805,28640.025,-1542.825,-13711.59,0.0,0.0,0.0,0.0,6
15765.57,28461.015,-1473.255,-13675.05,0.0,0.0,0.0,0.0,6
15620.94,28250.55,-1435.6799999999998,-13670.64,0.0,0.0,0.0,0.0,6
15410.07,28105.965,-1528.9199999999998,-13775.265,0.0,0.0,0.0,0.0,6
15414.48,28089.27,-1590.75,-13838.4,0.0,0.0,0.0,0.0,6
15539.58,28233.81,-1613.79,-13827.42,0.0,0.0,0.0,0.0,6
15755.445,28450.935,-1611.0449999999998,-13810.68,0.0,0.0,0.0,0.0,6
15882.3,28619.01,-1615.455,-13781.34,0.0,0.0,0.0,0.0,6
15900.255,28641.825,-1543.635,-13704.57,0.0,0.0,0.0,0.0,6
15874.605,28534.86,-1437.885,-13649.445,0.0,0.0,0.0,0.0,6
15748.605,28347.795,-1397.97,-13649.085,0.0,0.0,0.0,0.0,6
15454.08,28178.37,-1446.165,-13698.18,0.0,0.0,0.0,0.0,6
15328.395,28130.76,-1534.005,-13816.53,0.0,0.0,0.0,0.0,6
15451.605,28252.035,-1600.605,-13861.98,0.0,0.0,0.0,0.0,6
15649.605,28490.175,-1636.965,-13827.78,0.0,0.0,0.0,0.0,6
15813.315,28703.97,-1651.725,-13789.305,0.0,0.0,0.0,0.0,6
15933.735,28785.51,-1525.905,-13691.43,0.0,0.0,0.0,0.0,6
15958.98,28702.17,-1372.995,-13568.445,0.0,0.0,0.0,0.0,6
15715.08,28505.655,-1444.5,-13663.44,0.0,0.0,0.0,0.0,6
15446.205,28315.26,-1546.065,-13797.765,0.0,0.0,0.0,0.0,6
15258.825,28245.195,-1615.455,-13873.77,0.0,0.0,0.0,0.0,6
15384.195,28338.525,-1598.6699999999998,-13860.36,0.0,0.0,0.0,0.0,6
15564.735,28562.85,-1605.5549999999998,-13854.87,0.0,0.0,0.0,0.0,6
15808.86,28802.97,-1547.505,-13762.665,0.0,0.0,0.0,0.0,6
15882.615,28941.48,-1569.5549999999998,-13736.205,0.0,0.0,0.0,0.0,6
15775.02,28918.845,-1631.61,-13770.675,0.0,0.0,0.0,0.0,6
15645.735,28762.875,-1571.355,-13750.74,0.0,0.0,0.0,0.0,6
15469.65,28580.535,-1530.855,-13783.635,0.0,0.0,0.0,0.0,6
15347.385,28465.379999999997,-1524.33,-13822.65,0.0,0.0,0.0,0.0,6
15422.715,28510.02,-1474.335,-13776.75,0.0,0.0,0.0,0.0,6
15601.005,28708.515,-1489.815,-13740.03,0.0,0.0,0.0,0.0,6
15725.34,28921.455,-1566.495,-13777.65,0.0,0.0,0.0,0.0,6
15810.12,29089.845,-1611.855,-13806.855,0.0,0.0,0.0,0.0,6
15789.465,29126.385,-1612.215,-13783.545,0.0,0.0,0.0,0.0,6
15671.295,28988.46,-1548.405,-13748.805,0.0,0.0,0.0,0.0,6
15493.86,28777.41,-1542.51,-13783.86,0.0,0.0,0.0,0.0,6
15368.13,28609.02,-1517.04,-13778.685,0.0,0.0,0.0,0.0,6
15356.52,28566.72,-1482.39,-13777.515,0.0,0.0,0.0,0.0,6
15468.705,28695.51,-1514.2949999999998,-13839.39,0.0,0.0,0.0,0.0,6
15709.77,28912.004999999997,-1533.5549999999998,-13805.775,0.0,0.0,0.0,0.0,6
15910.965,29095.065,-1527.12,-13723.11,0.0,0.0,0.0,0.0,6
15921.405,29144.385,-1571.085,-13678.56,0.0,0.0,0.0,0.0,6
15812.28,29043.945,-1486.215,-13617.855,0.0,0.0,0.0,0.0,6
15628.68,28815.48,-1394.64,-13636.845,0.0,0.0,0.0,0.0,6
15420.105,28611.629999999997,-1456.47,-13753.62,0.0,0.0,0.0,0.0,6
15286.365,28528.965,-1539.855,-13854.33,0.0,0.0,0.0,0.0,6
15397.785,28627.65,-1535.49,-13821.615,0.0,0.0,0.0,0.0,6
15667.245,28862.235,-1487.745,-13732.695,0.0,0.0,0.0,0.0,6
15803.82,29088.629999999997,-1542.645,-13720.995,0.0,0.0,0.0,0.0,6
15839.775,29198.835,-1565.235,-13747.05,0.0,0.0,0.0,0.0,6
15815.835,29141.235,-1482.705,-13712.49,0.0,0.0,0.0,0.0,6
15708.645,28963.53,-1431.135,-13698.585,0.0,0.0,0.0,0.0,6
15507.495,28764.225,-1489.995,-13759.74,0.0,0.0,0.0,0.0,6
15281.055,28653.435,-1566.0449999999998,-13841.19,0.0,0.0,0.0,0.0,6
15309.45,28690.245,-1563.12,-13830.21,0.0,0.0,0.0,0.0,6
15446.925,28890.45,-1618.515,-13856.085,0.0,0.0,0.0,0.0,6
15634.62,29129.805,-1627.29,-13844.655,0.0,0.0,0.0,0.0,6
15817.77,29287.485,-1581.21,-13786.515,0.0,0.0,0.0,0.0,6
15818.445,29285.91,-1556.82,-13758.165,0.0,0.0,0.0,0.0,6
15682.005,29152.62,-1511.505,-13747.59,0.0,0.0,0.0,0.0,6
15525.045,28967.67,-1462.6799999999998,-13743.72,0.0,0.0,0.0,0.0,6
15354.72,28814.535,-1451.565,-13763.205,0.0,0.0,0.0,0.0,6
15336.72,28806.75,-1472.22,-13774.23,0.0,0.0,0.0,0.0,6
15422.985,28968.75,-1525.32,-13791.87,0.0,0.0,0.0,0.0,6
15635.25,29206.845,-1528.155,-13759.965,0.0,0.0,0.0,0.0,6
15823.395,29391.03,-1518.57,-13726.26,0.0,0.0,0.0,0.0,6
15860.025,29439.629999999997,-1496.97,-13710.825,0.0,0.0,0.0,0.0,6
15765.075,29354.85,-1455.705,-13704.66,0.0,0.0,0.0,0.0,6
15562.035,29175.57,-1470.195,-13748.58,0.0,0.0,0.0,0.0,6
15334.515,29001.87,-1515.915,-13823.865,0.0,0.0,0.0,0.0,6
15245.73,28931.895,-1546.605,-13870.755,0.0,0.0,0.0,0.0,6
15348.51,29022.975,-1559.97,-13862.79,0.0,0.0,0.0,0.0,6
15557.625,29236.095,-1537.2,-13808.7,0.0,0.0,0.0,0.0,6
15750.27,29430.629999999997,-1536.57,-13781.79,0.0,0.0,0.0,0.0,6
15879.33,29510.685,-1526.445,-13765.995,0.0,0.0,0.0,0.0,6
15796.17,29448.72,-1462.815,-13706.865,0.0,0.0,0.0,0.0,6
15677.235,29266.02,-1365.48,-13660.695,0.0,0.0,0.0,0.0,6
15487.785,29072.745,-1367.37,-13693.725,0.0,0.0,0.0,0.0,6
15296.535,28958.94,-1468.44,-13812.03,0.0,0.0,0.0,0.0,6
15303.105,28990.125,-1547.46,-13876.965,0.0,0.0,0.0,0.0,6
15515.82,29181.96,-1567.845,-13873.59,0.0,0.0,0.0,0.0,6
15735.555,29401.875,-1489.5449999999998,-13770.405,0.0,0.0,0.0,0.0,6
15875.145,29544.435,-1440.63,-13710.42,0.0,0.0,0.0,0.0,6
15842.835,29528.955,-1417.14,-13700.475,0.0,0.0,0.0,0.0,6
15673.32,29377.125,-1439.0549999999998,-13729.905,0.0,0.0,0.0,0.0,6
15488.595,29191.455,-1457.73,-13734.99,0.0,0.0,0.0,0.0,6
15328.665,29053.215,-1454.22,-13743.315,0.0,0.0,0.0,0.0,6
15315.57,29040.345,-1435.5449999999998,-13761.405,0.0,0.0,0.0,0.0,6
15420.015,29200.995,-1503.0449999999998,-13818.015,0.0,0.0,0.0,0.0,6
15598.17,29416.004999999997,-1561.41,-13834.665,0.0,0.0,0.0,0.0,6
15823.395,29593.845,-1495.665,-13743.0,0.0,0.0,0.0,0.0,6
15893.955,29627.955,-1434.465,-13688.055,0.0,0.0,0.0,0.0,6
15778.44,29518.56,-1382.49,-13655.97,0.0,0.0,0.0,0.0,6
15628.95,29330.82,-1310.355,-13619.115,0.0,0.0,0.0,0.0,6
15423.93,29154.914999999997,-1335.4199999999998,-13685.22,0.0,0.0,0.0,0.0,6
15225.48,29089.395,-1479.195,-13823.82,0.0,0.0,0.0,0.0,6
15344.91,29210.445,-1531.44,-13857.93,0.0,0.0,0.0,0.0,6
15586.02,29428.83,-1511.28,-13797.135,0.0,0.0,0.0,0.0,6
15845.355,29623.86,-1445.355,-13704.39,0.0,0.0,0.0,0.0,6
15921.495,29712.285,-1416.69,-13676.265,0.0,0.0,0.0,0.0,6
15903.855,29648.52,-1347.48,-13621.5,0.0,0.0,0.0,0.0,6
15673.455,29465.64,-1285.065,-13576.905,0.0,0.0,0.0,0.0,6
15364.08,29268.045,-1397.2949999999998,-13728.6,0.0,0.0,0.0,0.0,6
15248.655,29176.785,-1450.44,-13826.43,0.0,0.0,0.0,0.0,6
15267.06,29226.42,-1527.57,-13871.61,0.0,0.0,0.0,0.0,6
15468.93,29421.405,-1549.3049999999998,-13850.595,0.0,0.0,0.0,0.0,6
15744.555,29622.105,-1456.335,-13738.68,0.0,0.0,0.0,0.0,6
15859.71,29750.31,-1442.25,-13703.985,0.0,0.0,0.0,0.0,6
15819.66,29727.09,-1417.77,-13686.615,0.0,0.0,0.0,0.0,6
15659.055,29560.725,-1388.2949999999998,-13683.105,0.0,0.0,0.0,0.0,6
15545.88,29357.685,-1311.12,-13653.045,0.0,0.0,0.0,0.0,6
15389.46,29174.58,-1294.875,-13652.64,0.0,0.0,0.0,0.0,6
15299.235,29145.24,-1421.775,-13770.225,0.0,0.0,0.0,0.0,6
15464.43,29302.155,-1469.7,-13793.715,0.0,0.0,0.0,0.0,6
15653.07,29536.695,-1503.405,-13786.2,0.0,0.0,0.0,0.0,6
15834.51,29718.72,-1477.62,-13739.22,0.0,0.0,0.0,0.0,6
15839.01,29760.885,-1407.465,-13671.225,0.0,0.0,0.0,0.0,6
15701.085,29656.035,-1378.1699999999998,-13671.495,0.0,0.0,0.0,0.0,6
15566.49,29473.11,-1328.31,-13666.725,0.0,0.0,0.0,0.0,6
15451.245,29323.485,-1295.37,-13662.54,0.0,0.0,0.0,0.0,6
15294.06,29296.575,-1388.205,-13746.555,0.0,0.0,0.0,0.0,6
15350.85,29431.71,-1471.995,-13824.135,0.0,0.0,0.0,0.0,6
15581.16,29658.105,-1462.6799999999998,-13794.12,0.0,0.0,0.0,0.0,6
15780.285,29849.67,-1421.595,-13708.89,0.0,0.0,0.0,0.0,6
15828.255,29936.879999999997,-1437.03,-13682.07,0.0,0.0,0.0,0.0,6
15757.065,29879.37,-1383.435,-13639.41,0.0,0.0,0.0,0.0,6
15602.445,29704.725,-1303.56,-13622.67,0.0,0.0,0.0,0.0,6
15445.215,29523.42,-1295.505,-13652.82,0.0,0.0,0.0,0.0,6
15249.78,29433.06,-1370.115,-13741.83,0.0,0.0,0.0,0.0,6
15287.355,29500.379999999997,-1444.05,-13801.995,0.0,0.0,0.0,0.0,6
15527.295,29702.205,-1481.8049999999998,-13816.98,0.0,0.0,0.0,0.0,6
15785.46,29907.045,-1435.005,-13731.39,0.0,0.0,0.0,0.0,6
15940.53,30031.335,-1367.325,-13635.54,0.0,0.0,0.0,0.0,6
15901.965,30010.23,-1277.01,-13560.48,0.0,0.0,0.0,0.0,6
15713.91,29845.754999999997,-1231.9199999999998,-13543.83,0.0,0.0,0.0,0.0,6
15436.08,29641.004999999997,-1321.74,-13658.04,0.0,0.0,0.0,0.0,6
15202.71,29523.51,-1431.72,-13799.7,0.0,0.0,0.0,0.0,6
15277.635,29546.595,-1400.8049999999998,-13764.195,0.0,0.0,0.0,0.0,6
15558.705,29718.135,-1319.895,-13662.405,0.0,0.0,0.0,0.0,6
15748.83,29924.055,-1355.13,-13657.455,0.0,0.0,0.0,0.0,6
15860.97,30074.535,-1434.5549999999998,-13690.62,0.0,0.0,0.0,0.0,6
15807.375,30089.655,-1453.5449999999998,-13708.71,0.0,0.0,0.0,0.0,6
15710.535,29973.914999999997,-1339.695,-13646.97,0.0,0.0,0.0,0.0,6
15546.33,29782.26,-1299.375,-13631.31,0.0,0.0,0.0,0.0,6
15328.08,29617.875,-1328.58,-13683.465,0.0,0.0,0.0,0.0,6
15226.245,29571.21,-1396.3049999999998,-13756.77,0.0,0.0,0.0,0.0,6
15337.71,29702.43,-1429.245,-13778.865,0.0,0.0,0.0,0.0,6
15652.035,29922.21,-1377.945,-13705.605,0.0,0.0,0.0,0.0,6
15949.17,30104.955,-1266.03,-13562.865,0.0,0.0,0.0,0.0,6
15973.47,30157.875,-1289.115,-13559.58,0.0,0.0,0.0,0.0,6
15768.225,30075.615,-1384.695,-13619.79,0.0,0.0,0.0,0.0,6
15474.735,29899.215,-1421.145,-13693.905,0.0,0.0,0.0,0.0,6
15312.555,29745.855,-1339.965,-13704.885,0.0,0.0,0.0,0.0,6
15234.57,29677.455,-1352.115,-13740.795,0.0,0.0,0.0,0.0,6
15377.715,29761.245,-1348.515,-13737.51,0.0,0.0,0.0,0.0,6
15588.27,29981.43,-1369.665,-13688.325,0.0,0.0,0.0,0.0,6
15708.195,30227.76,-1479.33,-13691.52,0.0,0.0,0.0,0.0,6
15763.275,30425.22,-1480.905,-13683.195,0.0,0.0,0.0,0.0,6
15707.43,30380.085,-1422.72,-13671.09,0.0,0.0,0.0,0.0,6
15634.125,30214.395,-1275.66,-13570.515,0.0,0.0,0.0,0.0,6
15474.285,30017.879999999997,-1241.82,-13580.145,0.0,0.0,0.0,0.0,6
15340.86,29886.03,-1329.39,-13715.055,0.0,0.0,0.0,0.0,6
15241.05,29906.055,-1489.86,-13847.94,0.0,0.0,0.0,0.0,6
15461.91,30089.655,-1460.79,-13779.72,0.0,0.0,0.0,0.0,6
15682.455,30299.85,-1326.06,-13580.64,0.0,0.0,0.0,0.0,6
15844.95,30432.24,-1330.245,-13578.615,0.0,0.0,0.0,0.0,6
15801.21,30422.295,-1354.905,-13622.85,0.0,0.0,0.0,0.0,6
15648.66,30280.545,-1305.135,-13594.32,0.0,0.0,0.0,0.0,6
15443.73,30081.33,-1311.75,-13645.305,0.0,0.0,0.0,0.0,6
15280.47,29931.435,-1329.885,-13693.68,0.0,0.0,0.0,0.0,6
15200.01,29909.43,-1386.945,-13746.69,0.0,0.0,0.0,0.0,6
15382.935,30044.97,-1397.745,-13726.98,0.0,0.0,0.0,0.0,6
15604.875,30256.74,-1413.315,-13694.58,0.0,0.0,0.0,0.0,6
15808.32,30433.5,-1419.21,-13672.665,0.0,0.0,0.0,0.0,6
15872.445,30476.205,-1335.33,-13595.58,0.0,0.0,0.0,0.0,6
15841.035,30390.074999999997,-1177.605,-13465.08,0.0,0.0,0.0,0.0,6
15626.43,30227.58,-1182.015,-13490.325,0.0,0.0,0.0,0.0,6
15362.865,30064.14,-1270.395,-13604.94,0.0,0.0,0.0,0.0,6
15161.265,29982.78,-1395.135,-13755.06,0.0,0.0,0.0,0.0,6
15284.835,30057.795,-1408.23,-13746.06,0.0,0.0,0.0,0.0,6
15538.86,30251.565,-1371.735,-13665.375,0.0,0.0,0.0,0.0,6
15771.78,30458.52,-1326.465,-13594.455,0.0,0.0,0.0,0.0,6
15859.845,30561.93,-1301.22,-13562.145,0.0,0.0,0.0,0.0,6
15784.695,30489.57,-1289.97,-13566.015,0.0,0.0,0.0,0.0,6
15624.18,30312.855,-1257.255,-13583.34,0.0,0.0,0.0,0.0,6
15471.18,30128.985,-1181.115,-13546.98,0.0,0.0,0.0,0.0,6
15327.0,30007.71,-1210.995,-13580.37,0.0,0.0,0.0,0.0,6
15289.65,30040.199999999997,-1385.0549999999998,-13719.555,0.0,0.0,0.0,0.0,6
15490.71,30216.51,-1412.145,-13735.35,0.0,0.0,0.0,0.0,6
15735.6,30419.504999999997,-1377.1799999999998,-13666.095,0.0,0.0,0.0,0.0,6
15873.57,30539.25,-1344.735,-13586.805,0.0,0.0,0.0,0.0,6
15920.955,30508.425,-1255.41,-13504.41,0.0,0.0,0.0,0.0,6
15759.045,30360.285,-1204.56,-13484.115,0.0,0.0,0.0,0.0,6
15460.83,30164.22,-1254.195,-13584.015,0.0,0.0,0.0,0.0,6
15199.83,30024.945,-1301.895,-13657.365,0.0,0.0,0.0,0.0,6
15218.1,30032.01,-1327.365,-13667.58,0.0,0.0,0.0,0.0,6
15388.695,30196.71,-1383.435,-13697.82,0.0,0.0,0.0,0.0,6
15629.985,30434.039999999997,-1353.915,-13636.665,0.0,0.0,0.0,0.0,6
15801.255,30605.129999999997,-1353.915,-13606.47,0.0,0.0,0.0,0.0,6
15840.54,30635.504999999997,-1310.895,-13566.33,0.0,0.0,0.0,0.0,6
15717.06,30519.9,-1259.865,-13533.885,0.0,0.0,0.0,0.0,6
15554.07,30314.835,-1208.43,-13529.655,0.0,0.0,0.0,0.0,6
15400.935,30093.39,-1234.755,-13594.545,0.0,0.0,0.0,0.0,6
15282.09,30033.225,-1302.7949999999998,-13655.115,0.0,0.0,0.0,0.0,6
15373.485,30150.225,-1329.39,-13656.285,0.0,0.0,0.0,0.0,6
15588.45,30366.27,-1307.025,-13610.205,0.0,0.0,0.0,0.0,6
15809.94,30562.11,-1277.595,-13555.215,0.0,0.0,0.0,0.0,6
15891.435,30630.24,-1229.715,-13481.82,0.0,0.0,0.0,0.0,6
15782.265,30545.37,-1229.04,-13487.715,0.0,0.0,0.0,0.0,6
15595.605,30366.27,-1233.72,-13516.47,0.0,0.0,0.0,0.0,6
15422.895,30190.77,-1192.455,-13518.54,0.0,0.0,0.0,0.0,6
15269.13,30088.98,-1243.755,-13593.015,0.0,0.0,0.0,0.0,6
15308.91,30126.195,-1299.195,-13627.485,0.0,0.0,0.0,0.0,6
15544.62,30285.405,-1292.355,-13601.07,0.0,0.0,0.0,0.0,6
15773.4,30450.78,-1272.51,-13539.06,0.0,0.0,0.0,0.0,6
15903.36,30565.215,-1243.035,-13490.865,0.0,0.0,0.0,0.0,6
15894.945,30558.24,-1165.59,-13427.37,0.0,0.0,0.0,0.0,6
15762.96,30412.574999999997,-1114.65,-13435.335,0.0,0.0,0.0,0.0,6
15550.02,30231.045,-1127.565,-13493.07,0.0,0.0,0.0,0.0,6
15277.995,30089.699999999997,-1236.4199999999998,-13618.44,0.0,0.0,0.0,0.0,6
15320.43,30094.605,-1279.1699999999998,-13627.17,0.0,0.0,0.0,0.0,6
15499.035,30254.31,-1304.28,-13591.53,0.0,0.0,0.0,0.0,6
15709.545,30452.445,-1285.47,-13554.945,0.0,0.0,0.0,0.0,6
15854.445,30618.045,-1283.49,-13527.99,0.0,0.0,0.0,0.0,6
15803.64,30636.045,-1265.13,-13515.84,0.0,0.0,0.0,0.0,6
15719.985,30493.98,-1193.715,-13476.195,0.0,0.0,0.0,0.0,6
15556.77,30293.595,-1158.255,-13472.775,0.0,0.0,0.0,0.0,6
12958.155,29604.24,-2883.555,-13628.835,0.0,0.0,0.0,0.0,6
13192.92,29846.295,-2953.845,-13615.2,0.0,0.0,0.0,0.0,6
13526.82,30116.25,-3007.17,-13606.065,0.0,0.0,0.0,0.0,6
13638.78,30278.699999999997,-2997.81,-13518.675,0.0,0.0,0.0,0.0,6
13608.63,30232.305,-2930.94,-13459.095,0.0,0.0,0.0,0.0,6
13458.195,29994.3,-2816.685,-13414.815,0.0,0.0,0.0,0.0,6
13208.535,29710.935,-2743.74,-13403.25,0.0,0.0,0.0,0.0,6
12995.055,29532.645,-2747.97,-13468.59,0.0,0.0,0.0,0.0,6
12956.4,29548.035,-2827.845,-13536.855,0.0,0.0,0.0,0.0,6
13087.485,29765.61,-2921.9849999999997,-13557.375,0.0,0.0,0.0,0.0,6
13372.47,30052.71,-3005.5499999999997,-13548.015,0.0,0.0,0.0,0.0,6
13596.345,30280.004999999997,-3036.7799999999997,-13502.07,0.0,0.0,0.0,0.0,6
13603.41,30302.145,-2992.5899999999997,-13452.57,0.0,0.0,0.0,0.0,6
13497.12,30100.545,-2873.3399999999997,-13388.58,0.0,0.0,0.0,0.0,6
13312.62,29812.455,-2756.9249999999997,-13345.83,0.0,0.0,0.0,0.0,6
13052.07,29575.845,-2709.855,-13357.08,0.0,0.0,0.0,0.0,6
12896.955,29532.914999999997,-2794.41,-13452.975,0.0,0.0,0.0,0.0,6
12980.565,29800.664999999997,-2926.17,-13519.53,0.0,0.0,0.0,0.0,6
13219.02,30135.87,-3023.73,-13522.05,0.0,0.0,0.0,0.0,6
13492.035,30426.975,-3081.1949999999997,-13509.63,0.0,0.0,0.0,0.0,6
13585.635,30528.315,-3057.165,-13456.08,0.0,0.0,0.0,0.0,6
13502.835,30380.31,-2949.435,-13375.215,0.0,0.0,0.0,0.0,6
13302.09,30081.195,-2827.575,-13325.355,0.0,0.0,0.0,0.0,6
13054.77,29797.83,-2768.94,-13333.005,0.0,0.0,0.0,0.0,6
12869.28,29671.605,-2793.33,-13392.54,0.0,0.0,0.0,0.0,6
12958.29,29760.345,-2858.22,-13426.74,0.0,0.0,0.0,0.0,6
13167.27,30042.27,-2969.595,-13446.18,0.0,0.0,0.0,0.0,6
13390.245,30335.085,-3073.95,-13470.39,0.0,0.0,0.0,0.0,6
13547.745,30498.885,-3085.92,-13437.855,0.0,0.0,0.0,0.0,6
13514.49,30425.895,-3007.89,-13370.895,0.0,0.0,0.0,0.0,6
13343.715,30152.97,-2882.0699999999997,-13303.62,0.0,0.0,0.0,0.0,6
13118.535,29863.035,-2788.38,-13279.365,0.0,0.0,0.0,0.0,6
12917.295,29688.164999999997,-2752.92,-13295.295,0.0,0.0,0.0,0.0,6
12928.815,29702.43,-2793.7799999999997,-13329.54,0.0,0.0,0.0,0.0,6
13094.01,29942.685,-2947.185,-13422.105,0.0,0.0,0.0,0.0,6
13284.36,30244.995,-3088.935,-13474.215,0.0,0.0,0.0,0.0,6
13493.925,30455.055,-3096.54,-13415.265,0.0,0.0,0.0,0.0,6
13565.07,30449.879999999997,-2996.46,-13317.705,0.0,0.0,0.0,0.0,6
13468.41,30224.745,-2854.17,-13225.95,0.0,0.0,0.0,0.0,6
13256.28,29918.52,-2771.865,-13219.425,0.0,0.0,0.0,0.0,6
12959.325,29686.545,-2768.67,-13273.38,0.0,0.0,0.0,0.0,6
12869.505,29643.254999999997,-2814.12,-13327.245,0.0,0.0,0.0,0.0,6
13008.24,29819.475,-2915.865,-13375.53,0.0,0.0,0.0,0.0,6
13242.96,30114.27,-3013.875,-13385.88,0.0,0.0,0.0,0.0,6
13461.84,30362.22,-3050.37,-13339.8,0.0,0.0,0.0,0.0,6
13538.07,30422.52,-3008.52,-13275.72,0.0,0.0,0.0,0.0,6
13473.135,30259.89,-2920.23,-13223.34,0.0,0.0,0.0,0.0,6
13261.05,29963.52,-2822.22,-13186.17,0.0,0.0,0.0,0.0,6
13095.18,29699.46,-2713.3199999999997,-13161.96,0.0,0.0,0.0,0.0,6
12979.71,29595.285,-2716.875,-13201.74,0.0,0.0,0.0,0.0,6
13030.605,29682.27,-2785.23,-13221.9,0.0,0.0,0.0,0.0,6
13231.62,29927.07,-2917.44,-13284.99,0.0,0.0,0.0,0.0,6
13425.345,30196.935,-3023.64,-13320.405,0.0,0.0,0.0,0.0,6
13607.01,30312.72,-3019.23,-13283.145,0.0,0.0,0.0,0.0,6
13557.105,30208.365,-2920.5899999999997,-13201.425,0.0,0.0,0.0,0.0,6
13392.855,29938.725,-2792.115,-13145.355,0.0,0.0,0.0,0.0,6
13105.575,29642.67,-2737.71,-13177.62,0.0,0.0,0.0,0.0,6
12801.33,29478.195,-2781.63,-13267.755,0.0,0.0,0.0,0.0,6
12848.22,29522.879999999997,-2835.855,-13311.765,0.0,0.0,0.0,0.0,6
13135.95,29775.06,-2913.165,-13341.24,0.0,0.0,0.0,0.0,6
13445.73,30071.475,-3008.25,-13369.68,0.0,0.0,0.0,0.0,6
13491.495,30250.305,-3012.0299999999997,-13280.535,0.0,0.0,0.0,0.0,6
13456.08,30218.22,-2958.48,-13223.07,0.0,0.0,0.0,0.0,6
13401.27,29981.115,-2839.9049999999997,-13183.65,0.0,0.0,0.0,0.0,6
13164.39,29676.645,-2707.9649999999997,-13114.845,0.0,0.0,0.0,0.0,6
12913.47,29449.53,-2680.6949999999997,-13139.415,0.0,0.0,0.0,0.0,6
12802.77,29408.85,-2784.915,-13244.175,0.0,0.0,0.0,0.0,6
12917.7,29589.57,-2939.58,-13337.505,0.0,0.0,0.0,0.0,6
13221.135,29864.16,-2981.835,-13304.16,0.0,0.0,0.0,0.0,6
13484.205,30091.77,-3004.02,-13284.36,0.0,0.0,0.0,0.0,6
13533.795,30135.51,-2977.02,-13247.055,0.0,0.0,0.0,0.0,6
13433.445,29948.985,-2855.745,-13160.745,0.0,0.0,0.0,0.0,6
13233.42,29658.555,-2727.3599999999997,-13100.715,0.0,0.0,0.0,0.0,6
12990.51,29412.0,-2679.255,-13119.705,0.0,0.0,0.0,0.0,6
12818.565,29341.754999999997,-2737.7999999999997,-13202.415,0.0,0.0,0.0,0.0,6
12912.93,29471.805,-2831.085,-13255.695,0.0,0.0,0.0,0.0,6
13146.435,29746.305,-2936.43,-13278.87,0.0,0.0,0.0,0.0,6
13396.455,30006.36,-2992.725,-13256.91,0.0,0.0,0.0,0.0,6
13529.16,30108.6,-2970.585,-13205.115,0.0,0.0,0.0,0.0,6
13469.625,30002.31,-2884.005,-13146.975,0.0,0.0,0.0,0.0,6
13287.96,29736.405,-2764.395,-13094.55,0.0,0.0,0.0,0.0,6
13055.985,29456.73,-2684.43,-13085.82,0.0,0.0,0.0,0.0,6
12818.34,29322.135,-2715.8399999999997,-13158.09,0.0,0.0,0.0,0.0,6
12848.76,29384.504999999997,-2787.705,-13211.73,0.0,0.0,0.0,0.0,6
13053.195,29639.699999999997,-2902.5,-13250.925,0.0,0.0,0.0,0.0,6
13303.035,29929.004999999997,-2987.73,-13251.06,0.0,0.0,0.0,0.0,6
13497.57,30098.385,-2993.535,-13202.91,0.0,0.0,0.0,0.0,6
13501.98,30044.835,-2916.855,-13142.34,0.0,0.0,0.0,0.0,6
13361.67,29782.035,-2782.62,-13073.31,0.0,0.0,0.0,0.0,6
13120.56,29479.77,-2697.255,-13056.12,0.0,0.0,0.0,0.0,6
12853.395,29291.085,-2702.745,-13114.98,0.0,0.0,0.0,0.0,6
12790.485,29299.5,-2768.265,-13179.015,0.0,0.0,0.0,0.0,6
12958.02,29522.295,-2880.225,-13226.355,0.0,0.0,0.0,0.0,6
13217.985,29812.635,-2973.1949999999997,-13236.03,0.0,0.0,0.0,0.0,6
13452.165,30044.52,-3002.94,-13201.155,0.0,0.0,0.0,0.0,6
13504.995,30079.395,-2951.865,-13140.81,0.0,0.0,0.0,0.0,6
13407.165,29870.865,-2831.04,-13072.365,0.0,0.0,0.0,0.0,6
13170.915,29571.03,-2729.52,-13040.955,0.0,0.0,0.0,0.0,6
12906.09,29330.19,-2698.74,-13073.67,0.0,0.0,0.0,0.0,6
12743.46,29261.43,-2757.33,-13145.445,0.0,0.0,0.0,0.0,6
12863.34,29395.485,-2848.095,-13189.905,0.0,0.0,0.0,0.0,6
13135.275,29670.975,-2952.0899999999997,-13213.755,0.0,0.0,0.0,0.0,6
13406.67,29943.27,-3011.7149999999997,-13196.97,0.0,0.0,0.0,0.0,6
13516.515,30060.629999999997,-2991.15,-13148.145,0.0,0.0,0.0,0.0,6
13442.76,29948.76,-2891.0699999999997,-13083.345,0.0,0.0,0.0,0.0,6
13232.61,29662.785,-2769.795,-13032.99,0.0,0.0,0.0,0.0,6
12965.175,29382.93,-2700.54,-13034.61,0.0,0.0,0.0,0.0,6
12722.985,29267.055,-2738.3399999999997,-13111.155,0.0,0.0,0.0,0.0,6
12767.13,29348.37,-2821.68,-13163.76,0.0,0.0,0.0,0.0,6
13009.32,29619.09,-2943.4049999999997,-13205.115,0.0,0.0,0.0,0.0,6
13301.955,29893.635,-3014.595,-13198.095,0.0,0.0,0.0,0.0,6
13514.58,30050.414999999997,-3006.855,-13147.065,0.0,0.0,0.0,0.0,6
13528.395,29990.25,-2931.75,-13102.065,0.0,0.0,0.0,0.0,6
13361.895,29741.265,-2819.295,-13057.83,0.0,0.0,0.0,0.0,6
13033.71,29439.629999999997,-2710.395,-13004.64,0.0,0.0,0.0,0.0,6
12712.32,29257.605,-2718.18,-13062.33,0.0,0.0,0.0,0.0,6
12679.335,29263.32,-2794.3199999999997,-13136.355,0.0,0.0,0.0,0.0,6
12903.21,29481.57,-2904.345,-13180.995,0.0,0.0,0.0,0.0,6
13206.87,29777.445,-2994.12,-13184.415,0.0,0.0,0.0,0.0,6
13489.155,29996.955,-3026.475,-13159.08,0.0,0.0,0.0,0.0,6
13560.39,30009.735,-2977.65,-13112.37,0.0,0.0,0.0,0.0,6
13451.58,29793.824999999997,-2849.13,-13046.85,0.0,0.0,0.0,0.0,6
13177.08,29483.685,-2730.1949999999997,-13000.095,0.0,0.0,0.0,0.0,6
12779.01,29249.595,-2695.365,-13012.965,0.0,0.0,0.0,0.0,6
12612.555,29194.83,-2754.0899999999997,-13090.455,0.0,0.0,0.0,0.0,6
12773.655,29351.879999999997,-2859.525,-13144.275,0.0,0.0,0.0,0.0,6
13088.25,29640.735,-2963.565,-13162.815,0.0,0.0,0.0,0.0,6
13417.47,29891.97,-3018.915,-13150.305,0.0,0.0,0.0,0.0,6
13564.485,29965.68,-2983.365,-13095.54,0.0,0.0,0.0,0.0,6
13469.85,29829.735,-2879.46,-13026.78,0.0,0.0,0.0,0.0,6
13211.28,29546.28,-2758.5899999999997,-12981.6,0.0,0.0,0.0,0.0,6
12888.0,29275.605,-2693.79,-12989.655,0.0,0.0,0.0,0.0,6
12623.13,29170.26,-2732.13,-13062.96,0.0,0.0,0.0,0.0,6
12688.785,29275.83,-2819.43,-13117.095,0.0,0.0,0.0,0.0,6
12978.585,29552.805,-2930.625,-13147.245,0.0,0.0,0.0,0.0,6
13316.085,29835.135,-3005.64,-13143.915,0.0,0.0,0.0,0.0,6
13535.37,29976.66,-2999.88,-13102.605,0.0,0.0,0.0,0.0,6
13500.225,29891.16,-2922.21,-13048.695,0.0,0.0,0.0,0.0,6
13282.74,29622.78,-2791.845,-12984.3,0.0,0.0,0.0,0.0,6
12982.635,29334.015,-2702.115,-12971.925,0.0,0.0,0.0,0.0,6
12655.44,29183.4,-2720.88,-13040.64,0.0,0.0,0.0,0.0,6
12607.29,29219.58,-2791.7999999999997,-13095.765,0.0,0.0,0.0,0.0,6
12840.75,29467.71,-2912.31,-13143.69,0.0,0.0,0.0,0.0,6
13178.52,29766.285,-3007.305,-13154.67,0.0,0.0,0.0,0.0,6
13476.915,29956.635,-3026.3399999999997,-13119.795,0.0,0.0,0.0,0.0,6
13519.575,29939.129999999997,-2961.765,-13061.295,0.0,0.0,0.0,0.0,6
13357.71,29702.565,-2824.29,-12976.605,0.0,0.0,0.0,0.0,6
13069.71,29401.92,-2715.39,-12953.295,0.0,0.0,0.0,0.0,6
12729.105,29209.004999999997,-2701.62,-12997.89,0.0,0.0,0.0,0.0,6
12575.34,29186.19,-2769.165,-13069.035,0.0,0.0,0.0,0.0,6
12743.82,29381.31,-2882.6549999999997,-13125.195,0.0,0.0,0.0,0.0,6
13063.815,29690.775,-2989.62,-13150.305,0.0,0.0,0.0,0.0,6
13384.8,29936.879999999997,-3033.045,-13123.71,0.0,0.0,0.0,0.0,6
13514.22,29983.004999999997,-2993.7149999999997,-13074.84,0.0,0.0,0.0,0.0,6
13413.285,29814.93,-2880.72,-13007.07,0.0,0.0,0.0,0.0,6
13154.985,29517.03,-2758.41,-12958.38,0.0,0.0,0.0,0.0,6
12811.59,29261.115,-2702.97,-12966.84,0.0,0.0,0.0,0.0,6
12585.69,29183.94,-2748.24,-13045.59,0.0,0.0,0.0,0.0,6
12585.69,29183.94,-2748.24,-13045.59,0.0,0.0,0.0,0.0,6
12585.69,29183.94,-2748.24,-13045.59,0.0,0.0,0.0,0.0,6
12585.69,29183.94,-2748.24,-13045.59,0.0,0.0,0.0,0.0,6
13423.005,29859.885,-2899.17,-12984.48,0.0,0.0,0.0,0.0,6
13208.805,29565.315,-2797.6949999999997,-12958.695,0.0,0.0,0.0,0.0,6
12932.055,29281.995,-2712.51,-12956.31,0.0,0.0,0.0,0.0,6
12594.33,29135.61,-2722.5899999999997,-13001.58,0.0,0.0,0.0,0.0,6
12573.225,29193.254999999997,-2804.31,-13057.47,0.0,0.0,0.0,0.0,6
12830.4,29474.46,-2945.6549999999997,-13123.755,0.0,0.0,0.0,0.0,6
13187.34,29779.065,-3044.205,-13150.305,0.0,0.0,0.0,0.0,6
13448.16,29960.504999999997,-3047.355,-13100.805,0.0,0.0,0.0,0.0,6
13464.36,29907.315,-2952.99,-13017.33,0.0,0.0,0.0,0.0,6
13296.96,29653.92,-2821.365,-12952.935,0.0,0.0,0.0,0.0,6
13004.685,29331.945,-2715.8399999999997,-12914.865,0.0,0.0,0.0,0.0,6
12654.99,29108.789999999997,-2704.725,-12949.02,0.0,0.0,0.0,0.0,6
12542.58,29085.93,-2767.185,-13010.715,0.0,0.0,0.0,0.0,6
12732.165,29308.815,-2887.56,-13074.345,0.0,0.0,0.0,0.0,6
13077.495,29647.125,-2989.89,-13113.63,0.0,0.0,0.0,0.0,6
13380.255,29896.695,-3034.2149999999997,-13098.15,0.0,0.0,0.0,0.0,6
13465.935,29929.77,-2997.135,-13046.04,0.0,0.0,0.0,0.0,6
13357.035,29743.56,-2872.2149999999997,-12965.04,0.0,0.0,0.0,0.0,6
13103.37,29437.965,-2740.68,-12915.54,0.0,0.0,0.0,0.0,6
12764.25,29190.78,-2698.065,-12937.005,0.0,0.0,0.0,0.0,6
12539.88,29129.31,-2749.455,-13005.63,0.0,0.0,0.0,0.0,6
12656.34,29279.835,-2846.3399999999997,-13055.67,0.0,0.0,0.0,0.0,6
12963.15,29584.98,-2966.94,-13096.53,0.0,0.0,0.0,0.0,6
13284.09,29859.03,-3041.775,-13100.31,0.0,0.0,0.0,0.0,6
13461.525,29964.96,-3019.545,-13050.18,0.0,0.0,0.0,0.0,6
13414.23,29828.61,-2906.055,-12966.93,0.0,0.0,0.0,0.0,6
13192.02,29508.164999999997,-2759.13,-12889.89,0.0,0.0,0.0,0.0,6
12884.175,29203.11,-2675.88,-12879.495,0.0,0.0,0.0,0.0,6
12584.16,29076.615,-2712.24,-12954.465,0.0,0.0,0.0,0.0,6
12596.985,29167.695,-2802.645,-13018.545,0.0,0.0,0.0,0.0,6
12849.21,29456.595,-2939.265,-13076.955,0.0,0.0,0.0,0.0,6
13166.775,29788.83,-3048.165,-13104.945,0.0,0.0,0.0,0.0,6
13419.045,29982.195,-3058.38,-13070.025,0.0,0.0,0.0,0.0,6
13423.455,29919.824999999997,-2972.385,-12999.555,0.0,0.0,0.0,0.0,6
13248.135,29627.46,-2815.065,-12905.055,0.0,0.0,0.0,0.0,6
12980.88,29309.22,-2699.145,-12867.03,0.0,0.0,0.0,0.0,6
12669.885,29112.795,-2695.005,-12922.02,0.0,0.0,0.0,0.0,6
12552.12,29109.555,-2766.24,-12978.945,0.0,0.0,0.0,0.0,6
12733.335,29343.285,-2902.545,-13045.59,0.0,0.0,0.0,0.0,6
13068.855,29655.135,-3017.6099999999997,-13086.99,0.0,0.0,0.0,0.0,6
13374.315,29891.025,-3062.385,-13072.14,0.0,0.0,0.0,0.0,6
13443.57,29913.48,-3004.515,-13008.465,0.0,0.0,0.0,0.0,6
13307.58,29690.19,-2856.105,-12904.065,0.0,0.0,0.0,0.0,6
13051.17,29357.91,-2721.4649999999997,-12846.735,0.0,0.0,0.0,0.0,6
12732.93,29098.575,-2679.48,-12869.505,0.0,0.0,0.0,0.0,6
12556.35,29046.78,-2739.24,-12950.37,0.0,0.0,0.0,0.0,6
12691.89,29242.98,-2860.785,-13024.215,0.0,0.0,0.0,0.0,6
12933.765,29600.73,-3011.895,-13085.64,0.0,0.0,0.0,0.0,6
13209.12,30004.02,-3112.92,-13109.04,0.0,0.0,0.0,0.0,6
13364.28,30136.545,-3087.9449999999997,-13058.28,0.0,0.0,0.0,0.0,6
13314.375,29968.289999999997,-2955.42,-12965.715,0.0,0.0,0.0,0.0,6
13103.595,29609.235,-2785.185,-12870.495,0.0,0.0,0.0,0.0,6
12823.065,29281.545,-2678.94,-12840.885,0.0,0.0,0.0,0.0,6
12540.735,29166.48,-2727.18,-12918.015,0.0,0.0,0.0,0.0,6
12570.03,29285.325,-2830.005,-12997.305,0.0,0.0,0.0,0.0,6
12810.87,29595.51,-2979.585,-13060.89,0.0,0.0,0.0,0.0,6
13129.785,29923.47,-3088.305,-13089.78,0.0,0.0,0.0,0.0,6
13363.155,30080.699999999997,-3089.25,-13048.875,0.0,0.0,0.0,0.0,6
13384.755,29982.735,-2987.415,-12979.17,0.0,0.0,0.0,0.0,6
13180.995,29649.51,-2813.265,-12861.855,0.0,0.0,0.0,0.0,6
12909.645,29293.245,-2683.305,-12807.45,0.0,0.0,0.0,0.0,6
12595.905,29107.754999999997,-2685.105,-12861.45,0.0,0.0,0.0,0.0,6
12538.53,29150.01,-2763.855,-12930.255,0.0,0.0,0.0,0.0,6
12732.03,29418.975,-2921.805,-13016.43,0.0,0.0,0.0,0.0,6
13022.145,29761.605,-3058.92,-13067.685,0.0,0.0,0.0,0.0,6
13308.795,30004.695,-3093.345,-13044.33,0.0,0.0,0.0,0.0,6
13380.03,30002.31,-3018.555,-12976.875,0.0,0.0,0.0,0.0,6
13265.595,29731.365,-2856.4649999999997,-12874.14,0.0,0.0,0.0,0.0,6
13023.54,29374.245,-2708.505,-12806.955,0.0,0.0,0.0,0.0,6
12681.27,29121.075,-2666.88,-12819.555,0.0,0.0,0.0,0.0,6
12503.52,29094.254999999997,-2740.3199999999997,-12903.3,0.0,0.0,0.0,0.0,6
12636.405,29306.565,-2875.77,-12984.03,0.0,0.0,0.0,0.0,6
12920.58,29655.405,-3022.56,-13047.345,0.0,0.0,0.0,0.0,6
13220.055,29950.155,-3097.5299999999997,-13051.305,0.0,0.0,0.0,0.0,6
13364.82,30004.83,-3053.295,-12992.895,0.0,0.0,0.0,0.0,6
13311.27,29806.11,-2908.17,-12893.22,0.0,0.0,0.0,0.0,6
13099.455,29460.375,-2739.915,-12801.465,0.0,0.0,0.0,0.0,6
12797.685,29159.595,-2655.4049999999997,-12789.63,0.0,0.0,0.0,0.0,6
12524.355,29058.975,-2702.7,-12865.635,0.0,0.0,0.0,0.0,6
12571.92,29195.055,-2819.6549999999997,-12942.855,0.0,0.0,0.0,0.0,6
12809.565,29542.32,-2986.29,-13024.845,0.0,0.0,0.0,0.0,6
13118.58,29887.47,-3098.6549999999997,-13060.44,0.0,0.0,0.0,0.0,6
13342.005,30047.31,-3093.705,-13026.78,0.0,0.0,0.0,0.0,6
13342.41,29933.685,-2977.1099999999997,-12942.18,0.0,0.0,0.0,0.0,6
13150.98,29589.345,-2788.38,-12811.815,0.0,0.0,0.0,0.0,6
12874.545,29234.97,-2658.015,-12758.49,0.0,0.0,0.0,0.0,6
12568.545,29065.32,-2673.0899999999997,-12823.515,0.0,0.0,0.0,0.0,6
12530.7,29118.285,-2763.495,-12897.72,0.0,0.0,0.0,0.0,6
12731.76,29424.96,-2929.365,-12989.97,0.0,0.0,0.0,0.0,6
13042.53,29783.25,-3064.5,-13046.58,0.0,0.0,0.0,0.0,6
13293.18,30006.945,-3099.645,-13026.195,0.0,0.0,0.0,0.0,6
13329.81,29975.129999999997,-3023.19,-12957.435,0.0,0.0,0.0,0.0,6
13243.545,29670.164999999997,-2832.435,-12831.435,0.0,0.0,0.0,0.0,6
13017.24,29236.815,-2649.7799999999997,-12725.01,0.0,0.0,0.0,0.0,6
12676.185,28960.379999999997,-2616.705,-12749.31,0.0,0.0,0.0,0.0,6
12523.905,28944.315,-2689.83,-12832.695,0.0,0.0,0.0,0.0,6
12657.105,29193.48,-2854.665,-12935.655,0.0,0.0,0.0,0.0,6
12929.175,29564.28,-3029.85,-13023.9,0.0,0.0,0.0,0.0,6
13203.225,29867.76,-3110.67,-13032.18,0.0,0.0,0.0,0.0,6
13314.735,29915.235,-3059.2799999999997,-12974.265,0.0,0.0,0.0,0.0,6
13269.735,29665.98,-2885.625,-12850.515,0.0,0.0,0.0,0.0,6
13088.925,29252.52,-2680.245,-12725.82,0.0,0.0,0.0,0.0,6
12813.12,28924.785,-2585.79,-12704.49,0.0,0.0,0.0,0.0,6
12553.92,28848.645,-2648.835,-12790.035,0.0,0.0,0.0,0.0,6
12599.055,29041.2,-2794.815,-12886.92,0.0,0.0,0.0,0.0,6
12814.785,29437.56,-2986.02,-12990.87,0.0,0.0,0.0,0.0,6
13091.445,29793.15,-3111.705,-13040.055,0.0,0.0,0.0,0.0,6
13271.445,29928.51,-3108.1949999999997,-13006.845,0.0,0.0,0.0,0.0,6
13271.625,29777.129999999997,-2962.755,-12895.605,0.0,0.0,0.0,0.0,6
13136.085,29390.895,-2737.755,-12745.44,0.0,0.0,0.0,0.0,6
12902.67,28985.22,-2582.01,-12665.43,0.0,0.0,0.0,0.0,6
12606.885,28811.205,-2599.74,-12729.915,0.0,0.0,0.0,0.0,6
12562.515,28910.879999999997,-2717.595,-12820.275,0.0,0.0,0.0,0.0,6
12729.96,29281.185,-2930.67,-12953.475,0.0,0.0,0.0,0.0,6
12999.285,29674.935,-3095.19,-13036.77,0.0,0.0,0.0,0.0,6
13230.585,29898.72,-3131.595,-13016.475,0.0,0.0,0.0,0.0,6
13285.17,29833.02,-3026.9249999999997,-12932.055,0.0,0.0,0.0,0.0,6
13205.205,29471.535,-2796.0299999999997,-12771.405,0.0,0.0,0.0,0.0,6
13004.37,29051.955,-2599.65,-12653.73,0.0,0.0,0.0,0.0,6
12721.095,28819.845,-2579.355,-12703.59,0.0,0.0,0.0,0.0,6
12569.58,28849.455,-2670.39,-12787.38,0.0,0.0,0.0,0.0,6
12651.255,29175.39,-2858.94,-12897.9,0.0,0.0,0.0,0.0,6
12884.67,29617.245,-3052.4849999999997,-12999.78,0.0,0.0,0.0,0.0,6
13157.1,29933.055,-3138.39,-13025.565,0.0,0.0,0.0,0.0,6
13246.785,29956.86,-3107.43,-12987.72,0.0,0.0,0.0,0.0,6
13227.57,29646.99,-2879.505,-12811.14,0.0,0.0,0.0,0.0,6
13118.58,29190.33,-2585.3399999999997,-12607.875,0.0,0.0,0.0,0.0,6
12849.975,28843.245,-2477.115,-12573.765,0.0,0.0,0.0,0.0,6
12569.13,28785.285,-2595.7799999999997,-12701.43,0.0,0.0,0.0,0.0,6
12545.685,29022.705,-2831.13,-12877.245,0.0,0.0,0.0,0.0,6
12771.0,29471.94,-3044.52,-13004.055,0.0,0.0,0.0,0.0,6
13057.56,29864.655,-3171.645,-13065.525,0.0,0.0,0.0,0.0,6
13222.62,29992.004999999997,-3140.865,-13016.52,0.0,0.0,0.0,0.0,6
13215.33,29768.535,-2975.22,-12885.75,0.0,0.0,0.0,0.0,6
13125.42,29306.925,-2712.105,-12703.05,0.0,0.0,0.0,0.0,6
12928.095,28885.32,-2520.9,-12591.855,0.0,0.0,0.0,0.0,6
12630.375,28740.69,-2550.105,-12654.495,0.0,0.0,0.0,0.0,6
12564.135,28875.735,-2700.315,-12765.69,0.0,0.0,0.0,0.0,6
12715.695,29271.33,-2956.455,-12945.33,0.0,0.0,0.0,0.0,6
12962.52,29657.61,-3136.3199999999997,-13042.8,0.0,0.0,0.0,0.0,6
13195.755,29858.805,-3153.1949999999997,-13017.6,0.0,0.0,0.0,0.0,6
13258.935,29748.15,-3014.8199999999997,-12905.46,0.0,0.0,0.0,0.0,6
13200.795,29340.495,-2748.33,-12707.64,0.0,0.0,0.0,0.0,6
13011.255,28883.25,-2529.4049999999997,-12569.22,0.0,0.0,0.0,0.0,6
12703.59,28641.735,-2506.545,-12601.17,0.0,0.0,0.0,0.0,6
12596.175,28684.935,-2611.305,-12695.445,0.0,0.0,0.0,0.0,6
12701.34,29052.629999999997,-2856.06,-12867.615,0.0,0.0,0.0,0.0,6
12913.605,29518.965,-3083.355,-13012.02,0.0,0.0,0.0,0.0,6
13145.175,29840.085,-3162.915,-13024.26,0.0,0.0,0.0,0.0,6
13281.21,29833.47,-3057.12,-12931.83,0.0,0.0,0.0,0.0,6
13283.325,29467.35,-2814.0299999999997,-12755.97,0.0,0.0,0.0,0.0,6
13110.705,28982.655,-2552.985,-12560.31,0.0,0.0,0.0,0.0,6
12819.06,28643.129999999997,-2420.145,-12476.745,0.0,0.0,0.0,0.0,6
12618.495,28614.51,-2512.125,-12588.795,0.0,0.0,0.0,0.0,6
12626.19,28901.7,-2776.095,-12802.05,0.0,0.0,0.0,0.0,6
12787.2,29374.155,-3055.68,-12993.795,0.0,0.0,0.0,0.0,6
13088.07,29772.09,-3185.685,-13059.81,0.0,0.0,0.0,0.0,6
13211.685,29867.22,-3133.17,-12982.68,0.0,0.0,0.0,0.0,6
13231.35,29609.055,-2881.035,-12775.05,0.0,0.0,0.0,0.0,6
13178.07,29125.08,-2555.73,-12534.255,0.0,0.0,0.0,0.0,6
12993.345,28693.845,-2348.685,-12398.04,0.0,0.0,0.0,0.0,6
12643.02,28543.185,-2475.72,-12548.565,0.0,0.0,0.0,0.0,6
12592.35,28704.06,-2708.415,-12736.98,0.0,0.0,0.0,0.0,6
12761.28,29174.985,-2955.555,-12892.23,0.0,0.0,0.0,0.0,6
12917.655,29635.92,-3157.1549999999997,-12997.215,0.0,0.0,0.0,0.0,6
13073.175,29847.69,-3229.02,-13039.11,0.0,0.0,0.0,0.0,6
13179.15,29699.28,-3056.49,-12943.98,0.0,0.0,0.0,0.0,6
13177.98,29242.395,-2730.7799999999997,-12719.34,0.0,0.0,0.0,0.0,6
13021.83,28766.565,-2477.295,-12536.325,0.0,0.0,0.0,0.0,6
12753.72,28547.055,-2447.37,-12545.235,0.0,0.0,0.0,0.0,6
12720.96,28623.195,-2533.545,-12626.415,0.0,0.0,0.0,0.0,6
12774.42,29032.56,-2805.345,-12821.22,0.0,0.0,0.0,0.0,6
12916.62,29519.37,-3069.54,-13006.71,0.0,0.0,0.0,0.0,6
13060.035,29821.68,-3186.0899999999997,-13037.13,0.0,0.0,0.0,0.0,6
13154.985,29782.845,-3085.83,-12933.63,0.0,0.0,0.0,0.0,6
13172.31,29391.39,-2866.9049999999997,-12773.745,0.0,0.0,0.0,0.0,6
12988.845,28893.78,-2605.77,-12594.015,0.0,0.0,0.0,0.0,6
12821.76,28573.2,-2417.265,-12488.355,0.0,0.0,0.0,0.0,6
12667.59,28548.629999999997,-2520.765,-12559.77,0.0,0.0,0.0,0.0,6
12666.78,28867.5,-2779.74,-12758.58,0.0,0.0,0.0,0.0,6
12688.92,29380.545,-3091.9049999999997,-12941.55,0.0,0.0,0.0,0.0,6
12977.64,29789.19,-3194.145,-13028.355,0.0,0.0,0.0,0.0,6
13200.48,29883.78,-3103.74,-12972.015,0.0,0.0,0.0,0.0,6
13288.68,29617.379999999997,-2773.89,-12776.4,0.0,0.0,0.0,0.0,6
13211.955,29182.95,-2413.035,-12560.67,0.0,0.0,0.0,0.0,6
12951.045,28764.585,-2338.785,-12492.675,0.0,0.0,0.0,0.0,6
12654.0,28645.47,-2569.68,-12635.955,0.0,0.0,0.0,0.0,6
12693.87,28874.835,-2691.81,-12701.115,0.0,0.0,0.0,0.0,6
12788.325,29389.86,-2910.42,-12905.505,0.0,0.0,0.0,0.0,6
12944.88,29862.99,-3118.455,-13086.225,0.0,0.0,0.0,0.0,6
13037.355,30054.555,-3170.835,-13117.14,0.0,0.0,0.0,0.0,6
13128.12,29859.254999999997,-3073.14,-13002.345,0.0,0.0,0.0,0.0,6
13179.915,29337.525,-2708.055,-12708.9,0.0,0.0,0.0,0.0,6
13085.46,28814.535,-2343.555,-12495.015,0.0,0.0,0.0,0.0,6
12701.835,28581.57,-2365.74,-12496.545,0.0,0.0,0.0,0.0,6
12662.415,28670.355,-2511.315,-12598.92,0.0,0.0,0.0,0.0,6
12782.16,29125.754999999997,-2715.975,-12774.645,0.0,0.0,0.0,0.0,6
12939.66,29650.68,-2998.305,-13042.08,0.0,0.0,0.0,0.0,6
13063.86,29985.3,-3114.225,-13093.425,0.0,0.0,0.0,0.0,6
13249.035,29951.37,-2887.605,-12901.455,0.0,0.0,0.0,0.0,6
13191.435,29503.71,-2703.33,-12771.315,0.0,0.0,0.0,0.0,6
13001.13,28927.71,-2607.75,-12748.275,0.0,0.0,0.0,0.0,6
12617.595,28572.93,-2622.375,-12845.295,0.0,0.0,0.0,0.0,6
12555.81,28584.36,-2522.385,-12782.52,0.0,0.0,0.0,0.0,6
12646.89,28970.055,-2719.2149999999997,-12902.94,0.0,0.0,0.0,0.0,6
12726.405,29520.18,-3049.4249999999997,-13071.51,0.0,0.0,0.0,0.0,6
12902.445,29941.335,-3265.47,-13159.89,0.0,0.0,0.0,0.0,6
12982.725,29991.78,-3313.35,-13161.69,0.0,0.0,0.0,0.0,6
13087.53,29657.925,-2889.585,-12897.045,0.0,0.0,0.0,0.0,6
13041.225,29087.955,-2456.775,-12612.195,0.0,0.0,0.0,0.0,6
12929.265,28620.765,-2314.89,-12523.23,0.0,0.0,0.0,0.0,6
12693.42,28514.52,-2361.15,-12644.91,0.0,0.0,0.0,0.0,6
12638.835,28762.379999999997,-2611.845,-12873.915,0.0,0.0,0.0,0.0,6
12752.145,29305.62,-2995.83,-13150.8,0.0,0.0,0.0,0.0,6
12850.11,29801.385,-3263.76,-13291.2,0.0,0.0,0.0,0.0,6
13018.905,29999.61,-3240.6299999999997,-13246.83,0.0,0.0,0.0,0.0,6
13162.995,29787.435,-3047.58,-13053.69,0.0,0.0,0.0,0.0,6
13131.45,29266.02,-2713.14,-12807.0,0.0,0.0,0.0,0.0,6
12810.735,28750.5,-2531.97,-12721.545,0.0,0.0,0.0,0.0,6
12640.41,28560.105,-2521.35,-12794.04,0.0,0.0,0.0,0.0,6
12742.65,28721.655,-2576.88,-12886.38,0.0,0.0,0.0,0.0,6
12950.82,29179.62,-2668.365,-12939.93,0.0,0.0,0.0,0.0,6
13046.895,29633.94,-2891.745,-13016.835,0.0,0.0,0.0,0.0,6
13181.085,29883.195,-3084.75,-13100.175,0.0,0.0,0.0,0.0,6
13154.94,29806.74,-3117.15,-13107.15,0.0,0.0,0.0,0.0,6
13034.205,29445.975,-2925.0899999999997,-12975.615,0.0,0.0,0.0,0.0,6
12851.955,29057.94,-2706.5699999999997,-12825.09,0.0,0.0,0.0,0.0,6
12576.465,28835.055,-2702.88,-12811.68,0.0,0.0,0.0,0.0,6
12510.405,28853.19,-2771.775,-12864.285,0.0,0.0,0.0,0.0,6
12585.735,29128.68,-2887.83,-12999.6,0.0,0.0,0.0,0.0,6
12787.11,29509.605,-3093.255,-13176.585,0.0,0.0,0.0,0.0,6
13005.585,29794.275,-3143.0699999999997,-13221.27,0.0,0.0,0.0,0.0,6
13148.505,29812.68,-3013.65,-13122.135,0.0,0.0,0.0,0.0,6
13132.305,29550.645,-2840.22,-12989.745,0.0,0.0,0.0,0.0,6
12934.62,29163.96,-2658.4649999999997,-12872.16,0.0,0.0,0.0,0.0,6
12778.335,28882.935,-2589.0299999999997,-12827.7,0.0,0.0,0.0,0.0,6
12592.53,28815.12,-2781.765,-12921.03,0.0,0.0,0.0,0.0,6
12519.99,28986.39,-3094.47,-13148.055,0.0,0.0,0.0,0.0,6
12799.08,29334.375,-3131.19,-13164.48,0.0,0.0,0.0,0.0,6
13052.115,29636.46,-3167.91,-13151.34,0.0,0.0,0.0,0.0,6
13043.34,29708.685,-3126.24,-13114.845,0.0,0.0,0.0,0.0,6
13087.26,29505.285,-2886.705,-12968.415,0.0,0.0,0.0,0.0,6
12887.73,29195.64,-2765.205,-12912.12,0.0,0.0,0.0,0.0,6
12635.55,28916.055,-2763.0899999999997,-12996.18,0.0,0.0,0.0,0.0,6
12456.0,28800.585,-2762.91,-13037.04,0.0,0.0,0.0,0.0,6
12554.91,28878.12,-2810.025,-13073.76,0.0,0.0,0.0,0.0,6
12698.1,29141.235,-2980.035,-13173.435,0.0,0.0,0.0,0.0,6
12917.88,29429.73,-3096.0899999999997,-13228.65,0.0,0.0,0.0,0.0,6
13143.285,29592.675,-3025.89,-13139.055,0.0,0.0,0.0,0.0,6
13197.33,29527.83,-2821.41,-13020.345,0.0,0.0,0.0,0.0,6
13043.385,29281.095,-2681.325,-12973.14,0.0,0.0,0.0,0.0,6
12854.565,28996.425,-2588.13,-13004.46,0.0,0.0,0.0,0.0,6
12602.565,28819.215,-2645.19,-13105.395,0.0,0.0,0.0,0.0,6
12532.995,28816.02,-2888.865,-13210.74,0.0,0.0,0.0,0.0,6
12598.2,29026.89,-3138.345,-13234.77,0.0,0.0,0.0,0.0,6
12822.57,29327.625,-3165.435,-13257.315,0.0,0.0,0.0,0.0,6
13098.33,29548.17,-3080.52,-13217.31,0.0,0.0,0.0,0.0,6
13115.25,29553.435,-2987.19,-13138.83,0.0,0.0,0.0,0.0,6
13035.33,29360.385,-2911.23,-13140.945,0.0,0.0,0.0,0.0,6
12838.185,29100.015,-2788.74,-13082.67,0.0,0.0,0.0,0.0,6
12600.09,28891.125,-2802.15,-13168.485,0.0,0.0,0.0,0.0,6
12485.34,28826.73,-2852.5499999999997,-13229.325,0.0,0.0,0.0,0.0,6
12624.615,28964.07,-2881.845,-13215.915,0.0,0.0,0.0,0.0,6
12806.28,29223.855,-2974.0499999999997,-13239.225,0.0,0.0,0.0,0.0,6
12990.51,29448.99,-3024.63,-13239.72,0.0,0.0,0.0,0.0,6
13024.26,29504.789999999997,-3080.6549999999997,-13273.83,0.0,0.0,0.0,0.0,6
13001.04,29388.195,-2948.13,-13190.805,0.0,0.0,0.0,0.0,6
12849.435,29158.02,-2807.46,-13135.5,0.0,0.0,0.0,0.0,6
12593.295,28931.85,-2799.63,-13180.995,0.0,0.0,0.0,0.0,6
12407.22,28831.185,-2887.47,-13335.12,0.0,0.0,0.0,0.0,6
12484.935,28914.66,-2927.0699999999997,-13388.4,0.0,0.0,0.0,0.0,6
12745.935,29143.62,-2895.435,-13302.0,0.0,0.0,0.0,0.0,6
13022.325,29366.82,-2918.97,-13268.925,0.0,0.0,0.0,0.0,6
13129.56,29473.74,-2956.095,-13264.425,0.0,0.0,0.0,0.0,6
13063.995,29415.69,-2955.555,-13254.075,0.0,0.0,0.0,0.0,6
12920.67,29210.76,-2824.9649999999997,-13210.47,0.0,0.0,0.0,0.0,6
12794.985,28992.06,-2680.245,-13184.865,0.0,0.0,0.0,0.0,6
12645.945,28843.379999999997,-2597.49,-13178.79,0.0,0.0,0.0,0.0,6
12598.47,28851.435,-2674.305,-13244.265,0.0,0.0,0.0,0.0,6
12724.02,29037.96,-2840.58,-13321.35,0.0,0.0,0.0,0.0,6
12908.79,29275.379999999997,-2913.795,-13310.595,0.0,0.0,0.0,0.0,6
13143.915,29451.69,-2933.775,-13297.095,0.0,0.0,0.0,0.0,6
13069.845,29451.645,-2970.72,-13359.24,0.0,0.0,0.0,0.0,6
12773.745,29276.504999999997,-2966.895,-13397.265,0.0,0.0,0.0,0.0,6
12518.055,29050.875,-2939.31,-13434.705,0.0,0.0,0.0,0.0,6
12368.205,28898.504999999997,-2832.39,-13400.865,0.0,0.0,0.0,0.0,6
12358.62,28879.56,-2800.755,-13389.3,0.0,0.0,0.0,0.0,6
12577.455,29030.85,-2803.005,-13368.195,0.0,0.0,0.0,0.0,6
12852.63,29272.095,-2839.815,-13347.045,0.0,0.0,0.0,0.0,6
13023.18,29454.03,-2863.62,-13314.33,0.0,0.0,0.0,0.0,6
13105.395,29504.52,-2820.42,-13319.01,0.0,0.0,0.0,0.0,6
12986.64,29383.47,-2780.955,-13346.46,0.0,0.0,0.0,0.0,6
12764.025,29156.67,-2726.055,-13332.87,0.0,0.0,0.0,0.0,6
12526.47,28954.664999999997,-2770.6949999999997,-13364.235,0.0,0.0,0.0,0.0,6
12327.12,28879.965,-2811.42,-13387.815,0.0,0.0,0.0,0.0,6
12517.515,28976.355,-2796.5699999999997,-13406.67,0.0,0.0,0.0,0.0,6
12716.19,29196.855,-2794.23,-13379.13,0.0,0.0,0.0,0.0,6
12954.195,29393.685,-2758.14,-13296.735,0.0,0.0,0.0,0.0,6
13131.72,29453.67,-2698.47,-13229.28,0.0,0.0,0.0,0.0,6
13020.705,29383.47,-2704.14,-13253.355,0.0,0.0,0.0,0.0,6
12846.69,29180.835,-2724.345,-13342.77,0.0,0.0,0.0,0.0,6
12445.155,28950.48,-2769.255,-13398.255,0.0,0.0,0.0,0.0,6
12219.57,28804.23,-2822.625,-13488.615,0.0,0.0,0.0,0.0,6
12329.91,28821.06,-2826.6749999999997,-13511.07,0.0,0.0,0.0,0.0,6
12671.28,29002.905,-2756.9249999999997,-13433.94,0.0,0.0,0.0,0.0,6
12919.86,29207.43,-2748.42,-13364.055,0.0,0.0,0.0,0.0,6
13182.21,29350.125,-2649.4649999999997,-13260.87,0.0,0.0,0.0,0.0,6
13159.08,29337.164999999997,-2581.605,-13209.66,0.0,0.0,0.0,0.0,6
12964.185,29179.125,-2494.125,-13142.97,0.0,0.0,0.0,0.0,6
12688.695,28965.24,-2507.265,-13220.91,0.0,0.0,0.0,0.0,6
12473.145,28802.16,-2564.595,-13322.79,0.0,0.0,0.0,0.0,6
12359.43,28766.25,-2693.9249999999997,-13458.15,0.0,0.0,0.0,0.0,6
12426.885,28905.66,-2837.385,-13560.39,0.0,0.0,0.0,0.0,6
12795.12,29121.39,-2799.855,-13465.62,0.0,0.0,0.0,0.0,6
13077.585,29292.12,-2808.9449999999997,-13412.61,0.0,0.0,0.0,0.0,6
13086.0,29333.7,-2798.8199999999997,-13410.495,0.0,0.0,0.0,0.0,6
12863.52,29238.975,-2711.79,-13332.105,0.0,0.0,0.0,0.0,6
12617.01,29049.885,-2627.325,-13323.78,0.0,0.0,0.0,0.0,6
12453.57,28863.0,-2633.58,-13390.74,0.0,0.0,0.0,0.0,6
12277.89,28790.37,-2712.6,-13464.27,0.0,0.0,0.0,0.0,6
12398.31,28876.14,-2719.2149999999997,-13455.405,0.0,0.0,0.0,0.0,6
12809.835,29079.0,-2588.94,-13296.195,0.0,0.0,0.0,0.0,6
12957.3,29272.725,-2610.45,-13260.96,0.0,0.0,0.0,0.0,6
13039.92,29350.53,-2625.66,-13276.215,0.0,0.0,0.0,0.0,6
12988.935,29262.015,-2549.52,-13249.125,0.0,0.0,0.0,0.0,6
12791.475,29073.33,-2455.515,-13211.01,0.0,0.0,0.0,0.0,6
12499.02,28880.235,-2544.975,-13368.69,0.0,0.0,0.0,0.0,6
12313.845,28763.865,-2646.6749999999997,-13515.255,0.0,0.0,0.0,0.0,6
12531.555,28808.865,-2600.64,-13459.23,0.0,0.0,0.0,0.0,6
12680.37,28996.56,-2667.1949999999997,-13490.055,0.0,0.0,0.0,0.0,6
12811.995,29204.685,-2758.185,-13511.745,0.0,0.0,0.0,0.0,6
12842.55,29324.16,-2846.52,-13484.07,0.0,0.0,0.0,0.0,6
12838.23,29300.129999999997,-2695.995,-13380.93,0.0,0.0,0.0,0.0,6
12800.835,29142.0,-2522.61,-13330.665,0.0,0.0,0.0,0.0,6
12538.215,28939.004999999997,-2514.87,-13359.645,0.0,0.0,0.0,0.0,6
12459.645,28788.885,-2490.39,-13408.2,0.0,0.0,0.0,0.0,6
12556.98,28777.77,-2431.98,-13381.245,0.0,0.0,0.0,0.0,6
12692.295,28930.185,-2475.765,-13356.63,0.0,0.0,0.0,0.0,6
12837.06,29134.935,-2598.795,-13403.205,0.0,0.0,0.0,0.0,6
12994.56,29300.535,-2516.985,-13308.435,0.0,0.0,0.0,0.0,6
12956.805,29333.52,-2574.54,-13401.63,0.0,0.0,0.0,0.0,6
12758.985,29209.545,-2616.705,-13482.0,0.0,0.0,0.0,0.0,6
12532.68,29036.835,-2541.105,-13419.9,0.0,0.0,0.0,0.0,6
12247.56,28952.91,-2640.915,-13570.335,0.0,0.0,0.0,0.0,6
12178.575,28921.95,-2656.2149999999997,-13610.745,0.0,0.0,0.0,0.0,6
12357.675,29016.18,-2624.04,-13564.395,0.0,0.0,0.0,0.0,6
12715.56,29215.62,-2568.555,-13500.855,0.0,0.0,0.0,0.0,6
13027.455,29407.86,-2484.9449999999997,-13415.985,0.0,0.0,0.0,0.0,6
13027.32,29486.835,-2554.245,-13463.82,0.0,0.0,0.0,0.0,6
12747.96,29397.78,-2723.895,-13591.305,0.0,0.0,0.0,0.0,6
12436.335,29195.595,-2799.9,-13665.915,0.0,0.0,0.0,0.0,6
12228.885,29002.86,-2840.58,-13698.315,0.0,0.0,0.0,0.0,6
12183.795,28915.02,-2673.36,-13607.73,0.0,0.0,0.0,0.0,6
12335.76,28980.27,-2614.635,-13595.31,0.0,0.0,0.0,0.0,6
12524.58,29176.11,-2626.74,-13566.195,0.0,0.0,0.0,0.0,6
12878.73,29374.605,-2531.43,-13420.845,0.0,0.0,0.0,0.0,6
13215.42,29495.205,-2448.045,-13375.53,0.0,0.0,0.0,0.0,6
13059.405,29471.355,-2337.615,-13250.115,0.0,0.0,0.0,0.0,6
12613.86,29295.81,-2480.58,-13419.405,0.0,0.0,0.0,0.0,6
12302.865,29090.34,-2652.795,-13668.795,0.0,0.0,0.0,0.0,6
12058.47,28951.2,-2732.85,-13790.745,0.0,0.0,0.0,0.0,6
12138.39,28953.135,-2703.645,-13774.185,0.0,0.0,0.0,0.0,6
12405.555,29100.6,-2703.375,-13690.395,0.0,0.0,0.0,0.0,6
12764.385,29308.05,-2598.93,-13541.13,0.0,0.0,0.0,0.0,6
13128.84,29465.235,-2394.45,-13341.24,0.0,0.0,0.0,0.0,6
12903.885,29448.45,-2500.065,-13411.935,0.0,0.0,0.0,0.0,6
12580.11,29308.05,-2567.3399999999997,-13488.255,0.0,0.0,0.0,0.0,6
12478.41,29127.42,-2515.14,-13518.36,0.0,0.0,0.0,0.0,6
12307.095,28979.19,-2511.9,-13576.41,0.0,0.0,0.0,0.0,6
