,CH1,CH2,CH3,CH4,CH5,CH6,CH7,CH8,Target
0,-575.954001,-1850.216311,-1135.995135,844.724646,1075.303645,529.49233,757.56724,-500.630442,2.5859038112237784
1,-286.591405,-1256.216966,-661.965235,863.680403,705.438924,519.320531,534.411041,-535.900519,2.5698701117720835
2,-585.228808,-1339.217621,-790.935334,654.636159,357.574204,569.148732,252.254841,-810.170597,2.554351615285341
3,-675.866212,-1400.218275,-900.905434,729.591916,703.709483,839.976934,307.098642,-899.440674,2.539504059213147
4,-657.503615,-1397.21893,-896.875533,697.547673,705.844762,669.805135,353.942442,-835.710751,2.5254675826055335
5,-695.141019,-1190.219585,-517.845633,430.50343,302.980042,378.633336,239.786243,-856.980829,2.5123648730816655
6,-737.778422,-1331.22024,-966.815732,297.459186,330.115321,445.461537,400.630044,-756.250906,2.5002996633622097
7,-677.415825,-1375.220895,-1146.785832,363.414943,227.2506,341.289739,441.473844,-709.520983,2.4893556010570816
8,-414.053229,-1157.22155,-1104.755931,261.3707,-105.61412,54.11794,359.317645,-563.791061,2.479595507566545
9,-25.690632,-1047.222205,-1081.726031,284.326457,-144.478841,53.946141,604.161445,-169.061138,2.471061033824628
10,-29.328036,-1067.22286,-1058.69613,83.282213,-56.343562,217.774343,728.005246,-189.331216,2.4637727123717994
11,-335.965439,-1177.223515,-1432.66623,-233.76203,204.791718,719.602544,762.849046,-430.601293,2.4577303970741617
12,-664.602843,-1149.22417,-1525.636329,-332.806273,107.926997,1087.430745,573.692847,-656.87137,2.452914073893007
13,-894.240246,-1056.224825,-592.606429,493.149484,-75.937724,1024.258946,258.536647,-1037.141448,2.449285018629462
14,-1085.877649,-1573.22548,-826.576528,512.10524,-756.802445,658.087148,218.380448,-1106.411525,2.446787270691877
15,-1054.515053,-1932.226135,-1913.546628,77.060997,-930.667165,16.915349,-2.775752,-1045.681602,2.445349385811805
16,-661.152456,-2096.22679,-2475.516727,-231.983246,-953.531886,-168.25645,124.068049,-601.95168,2.4448864254028906
17,-710.78986,-2158.227445,-1830.486827,334.972511,169.603393,104.571751,331.911849,-609.221757,2.445302136029007
18,-611.427263,-1876.2281,-1135.456926,682.928268,720.738673,9.399953,342.75565,-638.491834,2.446491269312396
19,-566.064667,-1580.228754,-838.427026,445.884024,797.873952,131.228154,562.59945,-463.761912,2.448341990631529
20,-867.70207,-1617.229409,-762.397125,409.839781,629.009231,278.056355,607.443251,-641.031989,2.4507383241658522
21,-1095.339473,-1584.230064,-573.367225,515.795538,488.144511,459.884557,459.287052,-908.302067,2.4535625822457368
22,-1243.976877,-1673.230719,-779.337324,125.751295,180.27979,584.712758,292.130852,-1120.572144,2.456697728537252
23,-1052.61428,-1521.231374,-708.307424,359.707051,191.415069,562.540959,120.974653,-1136.842221,2.4600296272809974
24,-530.251684,-1202.232029,-692.277523,34.662808,-85.449651,260.36916,5.818453,-893.112299,2.463449134533656
25,-375.889087,-1071.232684,-834.247623,-4.381435,-357.314372,-3.802638,-49.337746,-801.382376,2.466853992027205
26,-358.52649,-1233.233339,-1100.217722,274.574322,-236.179093,82.025563,141.506054,-606.652453,2.4701504897390114
27,-652.163894,-1638.233994,-1332.187822,29.530078,-155.043813,226.853764,441.349855,-595.922531,2.473254869413022
28,-656.801297,-1624.234649,-1284.157921,127.485835,117.091466,245.681965,583.193655,-549.192608,2.4760944479299787
29,-432.438701,-1403.235304,-1106.128021,232.441592,161.226745,161.510167,701.037456,-345.462686,2.4786084464245204
30,-449.076104,-1328.235959,-890.09812,292.397349,124.362025,297.338368,697.881256,-376.732763,2.4807485182143028
31,-577.713508,-1298.236614,-733.06822,212.353105,19.497304,421.166569,465.725057,-571.00284,2.4824789757644283
32,-805.350911,-1657.237269,-1401.038319,277.308862,86.632583,605.99477,359.568857,-800.272918,2.4837767238859
33,-913.988314,-1731.237924,-1365.008419,249.264619,78.767863,585.822972,305.412658,-936.542995,2.4846309129930333
34,-878.625718,-1682.238578,-1343.978518,165.220376,-65.096858,409.651173,269.256458,-910.813072,2.4850423323665085
35,-852.263121,-1680.239233,-1411.948618,125.176132,-146.961579,320.479374,243.100259,-859.08315,2.4850225688459555
36,-777.900525,-1686.239888,-1459.918717,102.131889,-151.826299,282.307576,384.94406,-757.353227,2.484592961087081
37,-694.537928,-1659.240543,-1383.888817,68.087646,-224.69102,284.135777,476.78786,-645.623304,2.483783383363196
38,-861.175332,-1847.241198,-1246.858916,164.043403,-421.555741,206.963978,629.631661,-605.893382,2.4826308957930574
39,-726.812735,-1321.241853,-548.829016,846.999159,-28.420461,343.792179,883.475461,-402.163459,2.4811782997851277
40,-908.450138,-1180.242508,-298.799115,1070.954916,529.714818,814.620381,1118.319262,-476.433537,2.479472638377961
41,-1027.087542,-1217.243163,-370.769215,965.910673,1156.850097,1374.448582,1144.163062,-568.703614,2.4775636810292436
42,-729.724945,-1127.243818,-629.739314,908.86643,777.985377,1387.276783,986.006863,-590.973691,2.4755024312899203
43,-488.362349,-1287.244473,-453.709414,769.822186,764.120656,1294.104984,805.850663,-541.243769,2.473339693747651
44,-494.999752,-1614.245128,-997.679513,375.777943,950.255935,1082.933186,654.694464,-573.513846,2.4711247337116307
45,-491.637156,-1447.245783,-1041.649613,341.7337,242.391215,451.761387,261.538264,-670.783923,2.4689040594354466
46,-818.274559,-1646.246438,-1261.619712,224.689457,-245.473506,70.589588,157.382065,-830.054001,2.4667203523508965
47,-808.911962,-1734.247093,-1524.589812,-209.354786,-556.338227,-149.582211,140.225865,-698.324078,2.4646115659428167
48,-713.549366,-1668.247748,-1501.559911,-251.39903,-566.202947,-283.754009,242.069666,-592.594156,2.4626102086731967
49,-576.186769,-1483.248402,-1280.530011,117.556727,-134.067668,-87.925808,586.913467,-345.864233,2.46074282090941
50,-686.824173,-1548.249057,-1119.50011,262.512484,110.067611,129.902393,663.757267,-446.13431,2.4590296502764057
51,-648.461576,-1403.249712,-788.47021,264.468241,-8.797109,234.730595,443.601068,-587.404388,2.4574845243850647
52,-677.09898,-1625.250367,-1398.440309,246.423997,-108.66183,487.558796,303.444868,-663.674465,2.4561149146322037
53,-886.736383,-1726.251022,-1337.410409,117.379754,-587.526551,357.386997,99.288669,-887.944542,2.454922179856493
54,-951.373786,-1836.251677,-1439.380508,-75.664489,-778.391271,125.215198,136.132469,-885.21462,2.4539019741909756
55,-924.01119,-1906.252332,-1349.350608,40.291268,-445.255992,144.0434,196.97627,-825.484697,2.453044799583532
56,-716.648593,-1773.252987,-987.320707,438.247024,180.879287,324.871601,444.82007,-638.754774,2.452336680250042
57,-603.285997,-1883.253642,-1074.290807,441.202781,-72.985434,366.699802,635.663871,-494.024852,2.4517599338492855
58,-599.9234,-2026.254297,-1398.260906,431.158538,-198.850154,249.528003,725.507671,-450.294929,2.451294012470405
59,-562.560804,-1761.254952,-1343.231006,556.114295,-33.714875,302.356205,883.351472,-376.565007,2.4509163856269964
60,-487.198207,-1316.255607,-851.201105,884.070051,758.420404,556.184406,949.195272,-357.835084,2.450603437357997
61,-645.83561,-1233.256262,-620.171205,1080.025808,957.555684,656.012607,798.039073,-613.105161,2.450331350223638
62,-862.473014,-1445.256917,-821.141304,932.981565,1197.690963,1045.840809,612.882873,-891.375239,2.450076950413024
63,-566.110417,-1279.257572,-1019.111404,337.937322,735.826242,790.66901,377.726674,-749.645316,2.449818490286948
64,-625.747821,-1522.258226,-1600.081503,-462.106922,154.961522,430.497211,162.570475,-750.915393,2.4495363473867147
65,-869.385224,-1804.258881,-1499.051603,-780.151165,-143.903199,230.325412,151.414275,-883.185471,2.4492136221537004
66,-771.022628,-1616.259536,-804.021703,187.804592,42.23208,121.153614,169.258076,-817.455548,2.448836620219828
67,-499.660031,-1526.260191,-1178.991802,674.760349,252.36736,192.981815,319.101876,-559.725626,2.448395209032384
68,-362.297434,-1464.260846,-1093.961902,476.716105,182.502639,175.810016,494.945677,-412.995703,2.447883042648875
69,-251.934838,-1374.261501,-1009.932001,460.671862,249.637918,231.638217,629.789477,-259.26578,2.4472976526584453
70,-446.572241,-1475.262156,-1061.902101,232.627619,-132.226802,-57.533581,424.633278,-422.535858,2.4466404072370733
71,-709.209645,-1772.262811,-1330.8722,142.583376,-199.091523,44.29462,299.477078,-666.805935,2.4459163442106906
72,-885.847048,-1808.263466,-1115.8423,127.539133,-85.956244,302.122821,170.320879,-895.076012,2.4451338875781916
73,-856.484452,-1890.264121,-1453.812399,217.494889,176.179036,600.951022,249.164679,-870.34609,2.444304460140688
74,-849.121855,-1877.264776,-1522.782499,182.450646,110.314315,472.779224,306.00848,-837.616167,2.443442007613286
75,-693.759258,-1652.265431,-1286.752598,95.406403,-92.550406,254.607425,248.85228,-764.886244,2.442562451795512
76,-600.396662,-1741.266086,-1504.722698,-34.63784,-216.415126,198.435626,404.696081,-580.156322,2.441683091997381
77,-638.034065,-1973.266741,-2029.692797,-567.682084,-543.279847,211.263828,555.539882,-480.426399,2.440821974928919
78,-609.671469,-1939.267396,-1842.662897,-130.726327,-721.144568,1.092029,511.383682,-512.696477,2.43999725364895
79,-361.308872,-1827.26805,-1619.632996,352.22943,-566.009288,-89.07977,553.227483,-341.966554,2.4392265559395696
80,-196.946276,-1571.268705,-1713.603096,286.185187,-407.874009,-13.251569,570.071283,-325.236631,2.438526381648848
81,-582.583679,-1702.26936,-1718.573195,651.140943,370.26127,440.576633,560.915084,-547.506709,2.4379115471653026
82,-1096.221082,-2094.270015,-1358.543295,829.0967,1392.39655,1250.404834,751.758884,-738.776786,2.437394693307839
83,-945.858486,-1779.27067,-652.513394,1041.052457,1448.531829,1374.233035,692.602685,-789.046863,2.436985870601361
84,-1277.495889,-2290.271325,-1338.483494,919.008214,982.667108,1125.061236,614.446485,-989.316941,2.4366922132391724
85,-1074.133293,-1902.27198,-1039.453593,556.96397,370.802388,711.889438,391.290286,-1091.587018,2.436517710094957
86,-503.770696,-1507.272635,-910.423693,268.919727,203.937667,409.717639,346.134086,-723.857096,2.436463078031256
87,-162.4081,-1236.27329,-669.393792,158.875484,25.072946,21.54584,286.977887,-443.127173,2.436525739552605
88,-223.045503,-1456.273945,-1062.363892,221.831241,-20.791774,-86.625959,341.821687,-414.39725,2.4366999036645933
89,-160.682906,-1445.2746,-953.333991,399.786997,248.343505,44.202243,584.665488,-277.667328,2.4369767457172484
90,-313.32031,-1549.275255,-1110.304091,349.742754,221.478784,215.030444,583.509288,-379.937405,2.4373446791193776
91,-630.957713,-1713.27591,-1082.27419,611.698511,111.614064,293.858645,379.353089,-675.207482,2.437789709189409
92,-736.595117,-1762.276565,-1153.24429,514.654268,-193.250657,370.686847,261.19689,-874.47756,2.4382958571278426
93,-673.23252,-1616.27722,-1061.214389,245.610024,-670.115378,284.515048,159.04069,-932.747637,2.438845640215255
94,-618.869924,-1820.277874,-1272.184489,59.565781,-1022.980098,146.343249,215.884491,-820.017714,2.4394205929038746
95,-593.507327,-1991.278529,-1669.154588,-189.478462,-492.844819,528.17145,510.728291,-615.287792,2.4400018125124396
96,-627.14473,-1846.279184,-1434.124688,128.477295,117.29046,927.999652,914.572092,-463.557869,2.4405705127714117
97,-906.782134,-1763.279839,-664.094787,1724.433051,1539.42574,1461.827853,1281.415892,-536.827947,2.441108568502224
98,-1147.419537,-2004.280494,-623.064887,2118.388808,1937.561019,1406.656054,1357.259693,-669.098024,2.4415990352394723
99,-857.056941,-1991.281149,-996.034986,1341.344565,1254.696298,887.484255,1142.103493,-441.368101,2.4420266285943946
100,-291.694344,-1695.281804,-1235.005086,661.300322,166.831577,361.312457,664.947294,-254.638179,2.4423781495746844
101,-165.331748,-1535.282459,-1304.975185,174.256079,-245.033143,19.140658,311.791094,-396.908256,2.442642843871346
102,-11.969151,-1428.283114,-885.945285,123.211835,411.102136,520.968859,362.634895,-422.178333,2.4428126852397396
103,-312.606554,-1589.283769,-640.915384,612.167592,1056.237415,1016.797061,391.478695,-703.448411,2.442882575473137
104,-363.243958,-1591.284424,-666.885484,711.123349,794.372695,849.625262,465.322496,-686.718488,2.4428504560209747
105,-256.881361,-1389.285079,-725.855583,907.079106,733.507974,738.453463,520.166296,-543.988566,2.442717328964667
106,-316.518765,-1407.285734,-938.825683,631.034862,516.643253,570.281664,538.010097,-555.258643,2.4424871877537844
107,-153.156168,-1295.286389,-922.795782,535.990619,391.778533,381.109866,526.853898,-452.52872,2.4421668607474776
108,-335.793572,-1630.287044,-1407.765882,-64.053624,-233.086188,-191.061933,207.697698,-538.798798,2.4417657731257885
109,-303.430975,-1715.287698,-1628.735981,-335.097867,-458.950909,-366.233732,263.541499,-401.068875,2.4412956350630086
110,-498.068378,-1670.288353,-1289.706081,-477.142111,-554.815629,-310.405531,250.385299,-573.338952,2.4407700661272664
111,-734.705782,-1876.289008,-1533.67618,-123.186354,-274.68035,39.422671,193.2291,-794.60903,2.4402041676316437
112,-881.343185,-2073.289663,-1752.64628,-50.230597,-177.545071,295.250872,168.0729,-963.879107,2.4396140560666426
113,-809.980589,-2018.290318,-1625.616379,-129.27484,-210.409791,290.079073,47.916701,-987.149184,2.4390163717566953
114,-542.617992,-1830.290973,-1581.586479,-169.319084,-226.274512,171.907274,45.760501,-838.419262,2.438427777480866
115,-456.255395,-1780.291628,-1469.556578,-166.363327,-169.139233,173.735476,159.604302,-741.689339,2.437864461968028
116,-248.892799,-1431.292283,-821.526678,58.59243,-184.003953,31.563677,224.448102,-608.959417,2.437341662919747
117,-199.530202,-1510.292938,-1255.496777,188.548187,-7.868674,133.391878,433.291903,-468.229494,2.4368732235416406
118,-200.167606,-1486.293593,-1354.466877,180.503943,-119.733395,104.22008,531.135703,-452.499571,2.436471195499348
119,-0.805009,-1312.294248,-1146.436976,375.4597,-507.598115,-3.951719,587.979504,-300.769649,2.43614549979192
120,-108.442413,-1523.294903,-1692.407076,1.415457,-876.462836,6.876482,500.823305,-365.039726,2.4359036552964692
121,-171.079816,-1328.295558,-1435.377175,-474.628786,-1208.327557,-134.295317,157.667105,-637.309803,2.435750582734327
122,-875.717219,-2125.296213,-1733.347275,-449.67303,-352.192277,480.532885,104.510906,-1018.579881,2.435688489598491
123,-807.354623,-2008.296868,-1304.317374,345.282727,716.943002,952.361086,356.354706,-975.849958,2.435716839227522
124,-623.992026,-1852.297522,-1170.287474,370.238484,54.078281,527.189287,288.198507,-817.120036,2.435832404778123
125,-758.62943,-2067.298177,-1302.257573,704.194241,354.213561,510.017488,416.042307,-762.390113,2.4360294064046184
126,-451.266833,-1873.298832,-1190.227673,1090.149998,722.34884,500.84569,583.886108,-467.66019,2.4362997275653195
127,-430.904237,-1853.299487,-1286.197772,698.105754,778.484119,515.673891,582.729908,-389.930268,2.4366332041081042
128,-399.54164,-1614.300142,-1116.167872,495.061511,486.619399,353.502092,627.573709,-395.200345,2.43701797770145
129,-160.179043,-1262.300797,-949.137971,321.017268,298.754678,306.330293,742.417509,-224.470422,2.4374409033283966
130,-208.816447,-1131.301452,-744.108071,387.973025,521.889957,329.158495,702.26131,-305.7405,2.4378879989984665
131,-365.45385,-1460.302107,-1261.07817,729.928781,978.025237,715.986696,744.10511,-438.010577,2.438344924597501
132,-490.091254,-1695.302762,-1095.04827,876.884538,745.160516,810.814897,529.948911,-665.280654,2.438797475919891
133,-640.728657,-2112.303417,-1398.018369,678.840295,540.295795,754.643099,426.792711,-823.550732,2.439232079434357
134,-529.366061,-2024.304072,-1500.988469,462.796052,519.431075,582.4713,333.636512,-820.820809,2.439636273235723
135,-184.003464,-1639.304727,-1286.958568,402.751808,371.566354,386.299501,235.480313,-596.090887,2.4399991599332984
136,-169.640867,-1750.305382,-1454.928668,280.707565,-288.298367,256.127702,391.324113,-468.360964,2.4403118179133023
137,130.721729,-1160.306037,-771.898767,474.663322,-1174.163087,-154.044096,298.167914,-403.631041,2.44056765847024
138,24.084326,-1210.306692,-906.868867,324.619079,-1584.027808,-547.215895,193.011714,-456.901119,2.44076271770259
139,-60.553078,-1435.307346,-1227.838966,167.574835,-790.892529,-219.387694,497.855515,-326.171196,2.440895873775149
140,-113.190481,-1624.308001,-1438.809066,-18.469408,-276.757249,124.440507,564.699315,-305.441273,2.4409689821194798
141,-118.827885,-1507.308656,-1212.779165,165.486349,-31.62197,150.268709,387.543116,-407.711351,2.440986923324176
142,-226.465288,-1445.309311,-931.749265,691.442106,1175.513309,755.09691,377.386916,-519.981428,2.4409575608016696
143,-445.102691,-1558.309966,-1038.719364,757.397862,1767.648588,1171.925111,458.230717,-631.251506,2.440891607747727
144,-666.740095,-1820.310621,-1339.689464,359.353619,1127.783868,922.753313,499.074517,-757.521583,2.4408024053706243
145,-856.377498,-2049.311276,-1432.659563,7.309376,529.919147,545.581514,332.918318,-924.79166,2.4407056167953987
146,-770.014902,-1857.311931,-864.629663,624.265133,673.054426,456.409715,308.762118,-772.061738,2.4406188433812113
147,-635.652305,-1858.312586,-1019.599762,574.220889,579.189706,417.237916,452.605919,-518.331815,2.440561172365687
148,-425.289709,-1754.313241,-1018.569862,569.176646,457.324985,359.066118,575.44972,-364.601892,2.4405526667117705
149,-251.927112,-1739.313896,-1255.539961,501.132403,564.460264,400.894319,750.29352,-253.87197,2.4406138097279846
150,-93.564515,-1582.314551,-1276.510061,581.08816,262.595544,213.72252,446.137321,-374.142047,2.4407649184162863
151,62.798081,-1274.315206,-1104.48016,354.043916,-202.269177,49.550721,158.981121,-510.412124,2.4410255405350676
152,-247.839322,-1599.315861,-1064.45026,-312.000327,-381.133898,54.378923,20.824922,-672.682202,2.4414138510188415
153,-398.476726,-1929.316516,-1825.420359,-423.04457,200.001382,532.207124,195.668722,-650.952279,2.441946063651133
154,-746.114129,-2125.31717,-2104.390459,-350.088813,149.136661,537.035325,243.512523,-796.222357,2.4426358737333898
155,-1198.751533,-2328.317825,-1783.360558,233.866944,-93.72806,258.863526,110.356323,-949.492434,2.4434939469310897
156,-1377.388936,-2458.31848,-1365.330658,906.8227,222.40722,192.691728,121.200124,-971.762511,2.4445274685198
157,-1150.026339,-2308.319135,-1781.300757,561.778457,288.542499,217.519929,290.043924,-833.032589,2.4457397659202003
158,-816.663743,-2232.31979,-2062.270857,186.734214,-269.322222,-99.65187,325.887725,-631.302666,2.447130015733248
159,-158.301146,-1584.320445,-1040.240956,220.689971,-589.186942,-284.823668,295.731525,-354.572743,2.4486930445051756
160,280.06145,-1379.3211,-1265.211056,715.645727,-146.051663,180.004533,354.575326,-217.842821,2.4504192302152807
161,236.424047,-1178.321755,-727.181155,484.601484,-92.916384,555.832734,246.419126,-384.112898,2.452294509042928
162,-291.213357,-1439.32241,-1131.151255,-354.442759,3.218896,768.660935,105.262927,-747.382976,2.4543004893947136
163,-471.85076,-1828.323065,-1776.121354,-984.487002,317.354175,616.489137,150.106728,-755.653053,2.4564146725233384
164,-258.488163,-1665.32372,-1504.091454,-7.531246,809.489454,129.317338,73.950528,-604.92313,2.4586107764137113
165,51.874433,-1212.324375,-668.061553,1271.424511,877.624734,-58.854461,7.794329,-498.193208,2.4608591570171723
166,-44.76297,-1216.32503,-196.031653,1046.380268,616.760013,99.97374,191.638129,-481.463285,2.4631273184481697
167,3.599626,-1293.325685,-414.001752,911.336025,655.895292,289.801942,467.48193,-336.733362,2.465380501482906
168,91.962223,-1315.32634,-644.971852,701.291781,611.030572,254.630143,578.32573,-235.00344,2.4675823376753696
169,65.324819,-1458.326994,-863.941951,671.247538,697.165851,345.458344,758.169531,-133.273517,2.46969555468552
170,-286.312584,-1740.327649,-1148.912051,630.203295,727.30113,444.286545,721.013331,-351.543594,2.4716827170423676
171,-490.949987,-1736.328304,-1291.88215,466.159052,653.43641,614.114747,530.857132,-581.813672,2.4735069855776803
172,-680.587391,-1752.328959,-1249.85225,292.114808,541.571689,689.942948,323.700932,-870.083749,2.475132878190444
173,-558.224794,-1512.329614,-662.822349,785.070565,715.706968,857.771149,328.544733,-842.353827,2.4765270144538363
174,-617.862198,-1607.330269,-726.792449,595.026322,240.842248,564.599351,268.388533,-735.623904,2.477658826860076
175,-893.499601,-1841.330924,-1070.762548,190.982079,-392.022473,495.427552,302.232334,-736.893981,2.4785012222075435
176,-863.137005,-1876.331579,-1684.732648,-237.062165,-1082.887194,351.255753,461.076134,-631.164059,2.479031177751475
177,-871.774408,-2136.332234,-2051.702747,-168.106408,-943.751914,48.083954,345.919935,-707.434136,2.479230258236032
178,-414.411811,-1904.332889,-1392.672847,451.849349,42.383365,-216.087844,356.763736,-503.704213,2.4790850417636148
179,40.950785,-1712.333544,-1158.642946,760.805106,789.518644,-74.259643,468.607536,-202.974291,2.478587444589791
180,-190.686618,-1999.334199,-1895.613046,-194.239137,107.653924,-105.431442,276.451337,-484.244368,2.4777349373045277
181,-354.324022,-1881.334854,-1424.583145,-142.283381,-314.210797,-143.603241,-43.704863,-771.514446,2.4765306474118085
182,-375.961425,-1578.335509,-888.553245,361.672376,186.924482,158.224961,-150.861062,-920.784523,2.4749833459850263
183,-420.598829,-1607.336164,-842.523344,329.628133,161.059762,273.053162,-129.017262,-916.0546,2.4731073187868873
184,-425.236232,-1655.336818,-929.493444,297.58389,-128.804959,124.881363,-80.173461,-854.324678,2.4709221249311115
185,-374.873635,-1582.337473,-1065.463543,219.539646,-217.66968,-15.290435,-59.329661,-804.594755,2.468452248761187
186,-217.511039,-1411.338128,-1187.433643,34.495403,-113.534401,-72.462234,-59.48586,-686.864832,2.4657266530638204
187,-232.148442,-1457.338783,-1296.403742,-42.54884,-292.399121,-188.634033,-13.64206,-640.13491,2.4627782439610035
188,-277.785846,-1587.339438,-1325.373842,182.406917,270.736158,-7.805832,216.201741,-523.404987,2.459643259780271
189,-106.423249,-1362.340093,-1036.343941,161.362673,0.871437,3.02237,326.045541,-372.675064,2.4563605978409786
190,-201.060653,-1367.340748,-983.314041,240.31843,-459.993283,-96.149429,205.889342,-483.945142,2.452971094377244
191,-333.698056,-1435.341403,-1122.28414,295.274187,-637.858004,-26.321228,49.733143,-659.215219,2.4495167737174115
192,-609.335459,-1657.342058,-1316.25424,245.229944,154.277275,551.506973,42.576943,-882.485297,2.4460400833376137
193,-600.972863,-1553.342713,-996.224339,266.1857,586.412555,765.335175,100.420744,-888.755374,2.442583131496139
194,-498.610266,-1480.343368,-978.194439,277.141457,486.547834,503.163376,105.264544,-811.025451,2.439186943839558
195,-572.24767,-1742.344023,-1520.164538,250.097214,150.683113,194.991577,119.108345,-800.295529,2.4358907546652175
196,-448.885073,-1648.344678,-1444.134638,264.052971,130.818393,81.819778,109.952145,-692.565606,2.4327313474521257
197,-369.522477,-1817.345333,-1541.104737,555.008727,782.953672,272.64798,308.795946,-551.835683,2.4297424578669404
198,-347.15988,-2048.345988,-1777.074837,451.964484,486.088951,224.476181,389.639746,-478.105761,2.4269542507552564
199,-286.797283,-2050.346642,-1703.044936,351.920241,63.224231,224.304382,533.483547,-370.375838,2.424392880689206
200,-478.434687,-1895.347297,-1267.015036,79.875998,-257.64049,457.132584,523.327347,-508.645916,2.4220801435144126
201,-500.07209,-1661.347952,-1145.985136,630.831754,281.494789,696.960785,621.171148,-561.915993,2.4200332240804228
202,-351.709494,-1127.348607,-709.955235,877.787511,567.630069,732.788986,410.014948,-645.18607,2.418264543008909
203,-276.346897,-1030.349262,-651.925335,338.743268,1110.765348,996.617187,405.858749,-685.456148,2.416781703013719
204,-347.9843,-1310.349917,-933.895434,-166.300975,555.900627,535.445389,145.702549,-818.726225,2.415587532995564
205,-201.621704,-971.350572,-267.865534,521.654781,-88.964093,-146.72641,-201.45365,-875.996302,2.4146802259483446
206,-314.259107,-1315.351227,-676.835633,553.610538,-64.828814,-105.898209,-87.609849,-779.26638,2.4140535646861694
207,-254.896511,-1490.351882,-1335.805733,278.566295,23.306465,-14.070008,67.233951,-667.536457,2.413697227576824
208,-83.533914,-1384.352537,-1195.775832,78.522052,-119.558255,-90.241806,285.077752,-476.806534,2.413597164888897
209,59.828682,-1303.353192,-1205.745932,-10.522191,-192.422976,-21.413605,479.921552,-230.076612,2.413736035058566
210,-66.808721,-1297.353847,-782.716031,402.433565,-51.287697,-54.585404,290.765353,-399.346689,2.4140936891825917
211,-387.446124,-1661.354502,-1395.686131,514.389322,288.847583,338.242797,256.609153,-674.616767,2.414647691361955
212,-573.083528,-1742.355157,-1610.65623,384.345079,156.982862,527.070999,97.452954,-962.886844,2.415373862162506
213,-500.720931,-1593.355812,-1321.62633,543.300836,232.118141,791.8992,252.296754,-912.156921,2.4162468324229773
214,-448.358335,-1315.356466,-525.596429,1161.256592,405.253421,951.727401,561.140555,-781.426999,2.4172405949162594
215,-521.995738,-1406.357121,-577.566529,1094.212349,712.3887,1080.555603,745.984355,-695.697076,2.4183290419386334
216,-556.633142,-1598.357776,-956.536628,704.168106,727.523979,601.383804,529.828156,-625.967153,2.41948647773818
217,-811.270545,-1830.358431,-1317.506728,164.123863,336.659259,28.212005,97.671956,-834.237231,2.420688095766277
218,-693.907948,-1807.359086,-1611.476827,-159.920381,-95.205462,-340.959794,-11.484243,-761.507308,2.421910412008115
219,-388.545352,-1774.359741,-1975.446927,-245.964624,-260.070183,-287.131592,181.359557,-523.777386,2.4231316470788924
220,-85.182755,-1530.360396,-1751.417026,-124.008867,-527.934903,-173.303391,238.203358,-471.047463,2.4243320513181987
221,-121.820159,-1434.361051,-1182.387126,-75.05311,-693.799624,-113.47519,109.047159,-586.31754,2.4254941687312574
222,-218.457562,-1227.361706,-635.357225,450.902646,-138.664345,188.353011,-78.109041,-770.587618,2.426603037266954
223,-485.094966,-1256.362361,-684.327325,542.858403,318.470935,542.181213,-20.26524,-987.857695,2.4276463245450475
224,-645.732369,-1676.363016,-1203.297424,275.81416,-100.393786,365.009414,-19.42144,-1010.127772,2.4286143997070453
225,-571.369772,-1725.363671,-1241.267524,419.769917,134.741493,367.837615,156.422361,-919.39785,2.429500343528745
226,-393.007176,-1714.364326,-1595.237623,-188.274327,192.876773,254.665817,281.266161,-555.667927,2.43029990026354
227,-171.644579,-1575.364981,-1393.207723,-132.31857,-104.987948,-115.505982,-16.890038,-497.938004,2.4310113758555016
228,-233.281983,-1653.365636,-1335.177822,-198.362813,-1002.852669,-565.677781,-155.046238,-614.208082,2.431635488147013
229,-102.919386,-1572.36629,-1155.147922,122.592944,-1021.71739,-515.84958,98.797563,-491.478159,2.432175175490476
230,-115.55679,-1617.366945,-1318.118021,389.5487,-199.58211,-67.021378,169.641363,-497.748237,2.432635370746983
231,-240.194193,-1710.3676,-1286.088121,497.504457,432.553169,321.806823,148.485164,-649.018314,2.4330227480127395
232,-420.831596,-1822.368255,-1399.05822,483.460214,488.688448,424.635024,64.328964,-818.288391,2.4333454495586424
233,-419.469,-1894.36891,-1609.02832,279.415971,339.823728,451.463225,94.172765,-797.558469,2.4336128004081936
234,-506.106403,-1827.369565,-1341.998419,34.371727,314.959007,359.291427,34.016566,-850.828546,2.4338350177276884
235,-590.743807,-1577.37022,-780.968519,111.327484,-104.905714,71.119628,-196.139634,-947.098623,2.43402292177925
236,-550.38121,-1608.370875,-1080.938618,658.283241,-249.770434,174.947829,-22.295833,-818.368701,2.434187654614583
237,-581.018614,-1627.37153,-1278.908718,677.238998,-365.635155,290.77603,147.547967,-733.638778,2.434340411991541
238,-511.656017,-1656.372185,-1365.878817,76.194755,-554.499876,42.604232,223.391768,-641.908856,2.434492193205309
239,-241.29342,-1595.37284,-1312.848917,-249.849489,-529.364596,-114.567567,407.235568,-433.178933,2.4346535726710656
240,-155.930824,-1584.373495,-1150.819016,-13.893732,67.770683,250.260634,523.079369,-445.44901,2.4348344962057213
241,-236.568227,-1639.37415,-1174.789116,280.062025,605.905962,689.088836,437.923169,-596.719088,2.435044104062459
242,-312.205631,-1518.374805,-992.759215,793.017782,460.041242,575.917037,133.76697,-716.989165,2.435290581901451
243,-313.843034,-1433.37546,-987.729315,897.973538,606.176521,634.745238,140.61077,-716.259242,2.4355810400591524
244,-345.480438,-1450.376114,-991.699414,625.929295,148.3118,394.573439,104.454571,-773.52932,2.4359214207296245
245,-288.117841,-1327.376769,-818.669514,137.885052,-679.55292,36.401641,6.298371,-796.799397,2.436316432013425
246,-80.755244,-1085.377424,-498.639613,5.840809,-958.417641,-193.770158,59.142172,-633.069474,2.4367695072373623
247,-205.392648,-1735.378079,-1523.609713,412.796565,-127.282362,318.058043,436.985972,-449.339552,2.4372827875121237
248,-59.030051,-1521.378734,-1230.579812,422.752322,278.852918,258.886244,490.829773,-339.609629,2.437857125179967
249,108.332545,-1296.379389,-929.549912,240.708079,-220.011803,67.714446,588.673574,-193.879707,2.438492105612194
250,-146.304858,-1455.380044,-813.520011,489.663836,-231.876524,166.542647,543.517374,-353.149784,2.4391860847424502
251,-581.942262,-1976.380699,-1490.490111,497.619592,344.258756,500.370848,435.361175,-620.419861,2.4399362397592257
252,-688.579665,-2121.381354,-1669.46021,445.575349,1109.394035,963.199049,414.204975,-699.689939,2.4407386305178123
253,-597.217068,-1892.382009,-1036.43031,456.531106,990.529314,937.027251,396.048776,-712.960016,2.4415882694536113
254,-293.854472,-1775.382664,-1709.400409,912.486863,703.664594,935.855452,594.892576,-552.230093,2.442479198067859
255,-224.491875,-1740.383319,-2228.370509,591.442619,559.799873,664.683653,520.736377,-567.500171,2.443404568394332
256,-272.129279,-1568.383974,-1385.340608,495.398376,439.935152,271.511855,331.580177,-550.770248,2.444356728221224
257,-303.766682,-1285.384629,-216.310708,862.354133,375.070432,-48.659944,89.423978,-540.040326,2.4453273092156924
258,-443.404086,-1329.385284,-549.280807,441.30989,-151.794289,-235.831743,115.267778,-537.310403,2.4463073174596675
259,-239.041489,-1164.385938,-693.250907,601.265646,178.34099,21.996458,344.111579,-336.58048,2.4472872262358383
260,-80.678892,-1090.386593,-835.221006,547.221403,128.47627,228.82466,378.955379,-336.850558,2.448257071185506
261,-52.316296,-1150.387248,-1111.191106,197.17716,-148.388451,270.652861,199.79918,-499.120635,2.449206548181137
262,-234.953699,-1324.387903,-1165.161205,357.132917,58.746828,473.481062,103.642981,-661.390712,2.4501251144046474
263,-581.591103,-1416.388558,-1018.131305,454.088674,521.882108,803.309263,134.486781,-945.66079,2.4510020931898393
264,-514.228506,-1221.389213,-464.101404,763.04443,327.017387,496.137465,-38.669418,-949.930867,2.451826783169845
265,-634.86591,-1979.389868,-1315.071504,321.000187,161.152666,391.965666,63.174382,-841.200944,2.452588572167326
266,-443.503313,-1753.390523,-1169.041603,321.955944,16.287946,99.793867,48.018183,-630.471022,2.4532770560799344
267,-508.140716,-1630.391178,-1141.011703,350.911701,-71.576775,-150.377931,17.861983,-673.741099,2.453882162752994
268,-451.77812,-1781.391833,-1218.981802,410.867457,79.558504,-19.54973,200.705784,-591.011177,2.4543942805057055
269,208.584477,-1238.392488,-862.951902,767.823214,334.693783,182.278471,523.549584,-126.281254,2.454804390599587
270,369.947073,-1261.393143,-1019.922001,425.778971,307.829063,454.106672,643.393385,73.448669,2.4551042025241783
271,27.30967,-1252.393798,-829.892101,911.734728,435.964342,612.934874,377.237185,-347.821409,2.4552862905430404
272,-78.327734,-1082.394453,-877.8622,798.690484,236.099621,596.763075,145.080986,-605.091486,2.4553442295119137
273,-184.965137,-1174.395108,-920.8323,741.646241,69.234901,556.591276,121.924786,-618.361563,2.455272727570443
274,-413.60254,-1410.395762,-1037.802399,414.601998,-699.62982,92.419477,-53.231413,-728.631641,2.4550677529391924
275,-485.239944,-1567.396417,-1175.772499,110.557755,-1184.494541,-138.752321,-97.387613,-752.901718,2.4547266517440427
276,-296.877347,-1618.397072,-1405.742598,29.513511,-722.359261,0.07588,37.456188,-532.171796,2.454248253558507
277,-183.514751,-1399.397727,-1001.712698,344.469268,129.776018,174.904081,135.299989,-471.441873,2.453632961216917
278,-173.152154,-1239.398382,-759.682797,189.425025,-26.088703,-100.267718,157.143789,-514.71195,2.4528828214211598
279,-116.789558,-1466.399037,-1411.652897,235.380782,-125.953423,-23.439516,403.98759,-326.982028,2.4520015727509112
280,-243.426961,-1497.399692,-1239.622996,218.336538,-188.818144,-24.611315,274.83139,-420.252105,2.45099466789879
281,-308.064364,-1493.400347,-1159.593096,346.292295,196.317135,94.216886,133.675191,-510.522182,2.4498692672901767
282,-510.701768,-1557.401002,-1187.563195,375.248052,309.452415,360.045088,-18.481009,-783.79226,2.448634201711125
283,-546.339171,-1515.401657,-1157.533295,400.203809,349.587694,458.873289,-27.637208,-942.062337,2.4472999021510167
284,-510.976575,-1415.402312,-1246.503394,-218.840435,149.722973,347.70149,-73.793408,-931.332414,2.4458782957593592
285,-368.613978,-1230.402967,-817.473494,-319.884678,7.858253,283.529691,-11.949607,-741.602492,2.444382667604267
286,-311.251382,-1627.403622,-1286.443593,393.071079,55.993532,335.357893,215.894193,-433.872569,2.442827488785522
287,-307.888785,-1671.404277,-1253.413693,766.026836,-104.871189,392.186094,340.737994,-403.142647,2.441228212375986
288,-116.526188,-1426.404932,-1144.383792,584.982592,-447.735909,294.014295,354.581794,-366.412724,2.439601039616872
289,-6.163592,-1365.405586,-1185.353892,461.938349,-192.60063,274.842496,420.425595,-271.682801,2.437962659747827
290,-182.800995,-1398.406241,-863.323991,717.894106,622.534649,455.670698,404.269395,-387.952879,2.436329967783082
291,-386.438399,-1336.406896,-359.294091,1055.849863,742.669929,373.498899,270.113196,-606.222956,2.434719765420457
292,-674.075802,-1610.407551,-803.26419,768.80562,236.805208,571.3271,239.956997,-884.493033,2.433148451060969
293,-618.713205,-1624.408206,-966.23429,724.761376,146.940487,592.155301,196.800797,-826.763111,2.4316317055942926
294,-454.350609,-1598.408861,-1175.204389,547.717133,-6.924233,316.983503,152.644598,-577.033188,2.430184181142286
295,-317.988012,-1539.409516,-1265.174489,194.67289,-362.788954,78.811704,17.488398,-530.303266,2.428819200324654
296,-344.625416,-1449.410171,-972.144588,260.628647,-493.653675,87.639905,228.332199,-519.573343,2.4275484737966364
297,-346.262819,-1470.410826,-1065.114688,268.584403,34.481605,202.468107,272.175999,-516.84342,2.426381843791693
298,-146.900223,-1309.411481,-1057.084787,117.54016,647.616884,126.296308,274.0198,-429.113498,2.4253270611708873
299,143.462374,-1210.412136,-1008.054887,1.495917,250.752163,-143.875491,320.8636,-166.383575,2.4243896030290024
300,46.824971,-1347.412791,-1272.024986,-130.548326,-43.112557,-33.04729,173.707401,-279.653652,2.42357253723539
301,-117.812433,-1343.413446,-1517.995086,-151.59257,-699.977278,-47.219088,-64.448799,-555.92373,2.4228764394016857
302,-360.449836,-1585.414101,-1722.965185,-303.636813,-1036.841999,152.609113,-143.604998,-796.193807,2.422299366681878
303,-389.08724,-1527.414756,-1081.935285,-124.681056,-1601.706719,-43.562686,-269.761198,-884.463884,2.4218368915423163
304,-349.724643,-1415.41541,-690.905384,355.274701,-1011.57144,60.265515,-206.917397,-791.733962,2.421482197216056
305,-350.362047,-1410.416065,-804.875484,615.230457,164.563839,175.093717,25.926404,-688.004039,2.4212262350091827
306,-256.99945,-1690.41672,-1413.845583,601.186214,1364.699119,632.921918,473.770204,-384.274117,2.4210579419934364
307,-223.636853,-1493.417375,-728.815683,225.141971,1285.834398,681.750119,551.614005,-266.544194,2.4209645159410025
308,-179.274257,-1087.41803,-53.785782,665.097728,974.969677,405.578321,543.457805,-217.814271,2.4209317426786976
309,-53.91166,-816.418685,-42.755882,1577.053484,1152.104957,566.406522,712.301606,-45.084349,2.420944369407323
310,-59.549064,-499.41934,330.274019,1671.009241,1210.240236,955.234723,889.145406,-35.354426,2.4209865159960327
311,-109.186467,-886.419995,154.303919,1985.964998,1640.375515,1603.062924,1160.989207,-9.624503,2.4210421148693184
312,-335.823871,-1185.42065,125.33382,2309.920755,1807.510794,1819.891126,1033.833007,-280.894581,2.4210953689022037
313,-1077.461274,-1739.421305,-463.63628,1481.876511,1054.646074,1360.719327,516.676808,-950.164658,2.4211312157709193
314,-1486.098677,-2350.42196,-1327.606379,321.832268,-134.218647,279.547528,-214.479392,-1345.434736,2.4211357865106624
315,-899.736081,-2046.422615,-1432.576479,-162.211975,-730.083368,-305.624271,-424.635591,-922.704813,2.421096845642005
316,99.626516,-1032.42327,-848.546578,29.743782,-463.948088,-219.796069,-79.791791,-217.97489,2.421004200169148
317,360.989112,-619.423925,-794.516678,-25.300461,-339.812809,-101.967868,115.05201,-125.244968,2.4208500650440903
318,226.351709,-696.42458,-422.486777,131.655295,-243.67753,-201.139667,151.89581,-235.515045,2.420629373339407
319,155.714305,-939.425234,-728.456877,316.611052,218.45775,-75.311466,349.739611,-154.785122,2.4203400203773784
320,-76.923098,-1236.425889,-1339.426976,161.566809,106.593029,-28.483264,196.583412,-372.0552,2.4199830324128975
321,-337.560501,-1385.426544,-1385.397076,-114.477434,-100.271692,63.344937,-40.572788,-606.325277,2.4195626521398257
322,-412.197905,-1273.427199,-1142.367175,-303.521678,-260.136412,39.173138,-287.728987,-760.595354,2.4190863352527465
323,-248.835308,-944.427854,-713.337275,39.434079,-263.001133,-97.99866,-442.885187,-717.865432,2.418564654506047
324,-381.472712,-1180.428509,-904.307374,58.389836,-321.865854,-167.170459,-341.041386,-719.135509,2.4180111101185764
325,-425.110115,-1367.429164,-988.277474,177.345593,36.269426,194.657742,-13.197586,-623.405587,2.417441847915438
326,-288.747519,-1426.429819,-1207.247573,101.301349,171.404705,305.485943,267.646215,-370.675664,2.4168752892127876
327,-413.384922,-1582.430474,-1302.217673,253.257106,292.539984,360.314145,401.490015,-287.945741,2.4163316790659928
328,-488.022325,-1585.431129,-1188.187772,553.212863,500.675264,475.142346,594.333816,-239.215819,2.4158325620421546
329,-540.659729,-1703.431784,-1163.157872,694.16862,623.810543,748.970547,918.177616,-190.485896,2.41540019706963
330,-458.297132,-1513.432439,-749.127971,985.124376,842.945822,1041.798748,928.021417,-245.755973,2.4150569250858753
331,-89.934536,-809.433094,-50.098071,799.080133,643.081102,957.62695,632.865217,-315.026051,2.4148245050799897
332,23.428061,-845.433749,-756.06817,302.03589,282.216381,574.455151,189.709018,-496.296128,2.414723435642773
333,-230.209343,-1212.434404,-793.03827,650.991647,545.35166,672.283352,143.552818,-598.566206,2.4147722802376106
334,-319.846746,-1192.435058,-864.008369,198.947403,229.48694,360.111553,-19.603381,-572.836283,2.4149870150424895
335,-221.484149,-939.435713,-738.978469,-156.09684,-395.377781,-122.060245,-124.75958,-413.10636,2.415380418350806
336,-198.121553,-836.436368,-503.948568,-54.141083,-574.242502,-144.232044,-5.91578,-343.376438,2.4159615201332194
337,-219.758956,-895.437023,-527.918668,204.814674,-268.107222,1.596157,162.928021,-327.646515,2.4167351294456387
338,-110.39636,-1035.437678,-606.888768,184.77043,152.028057,74.424359,282.771821,-232.916592,2.4177014559255263
339,80.966237,-1090.438333,-678.858867,110.726187,96.163336,-99.74744,368.615622,-114.18667,2.4188558396713127
340,-9.671167,-1227.438988,-942.828967,-4.318056,-315.701384,-253.919239,159.459422,-254.456747,2.4201886013844685
341,-185.30857,-1409.439643,-1379.799066,-186.362299,-517.566105,127.908962,-16.696777,-458.726824,2.421685021821896
342,-378.945973,-1422.440298,-1436.769166,-352.406543,-487.430826,505.737164,-178.852977,-690.996902,2.4233254564226345
343,-395.583377,-1267.440953,-957.739265,-143.450786,-201.295546,482.565365,-151.009176,-732.266979,2.425085587514499
344,-346.22078,-1212.441608,-680.709365,272.504971,-146.160267,87.393566,-113.165376,-622.537057,2.426936812860594
345,-278.858184,-1337.442263,-1027.679464,297.460728,397.975012,254.221767,145.678425,-479.807134,2.4288467655680805
346,-175.495587,-1268.442918,-968.649564,225.416485,522.110292,134.049969,283.522225,-370.077211,2.4307799566530544
347,-28.132991,-1047.443573,-491.619663,497.372241,509.245571,54.87817,328.366026,-220.347289,2.432698527939824
348,206.229606,-892.444228,-804.589763,221.327998,545.38085,53.706371,511.209827,-13.617366,2.434563099573937
349,335.592203,-764.444882,-964.559862,-159.716245,-170.48387,-172.465427,586.053627,68.112557,2.436333693346575
350,60.954799,-1022.445537,-693.529962,315.239512,-523.348591,47.362774,512.897428,-112.157521,2.437970710357991
351,58.317396,-926.446192,-369.500061,1205.195268,-242.213312,610.190975,449.741228,-234.427598,2.4394359393750324
352,-166.320008,-825.446847,88.529839,1348.151025,-121.078032,833.019176,308.585029,-484.697676,2.440693570636622
353,-540.957411,-1062.447502,-346.44026,961.106782,123.057247,657.847378,170.428829,-684.967753,2.4417111888912286
354,-856.594815,-1472.448157,-796.41036,482.062539,349.192526,293.675579,114.27263,-872.23783,2.442460719155902
355,-738.232218,-1576.448812,-693.380459,599.018295,1447.327805,617.50378,227.11643,-771.507908,2.442919299093673
356,-543.869621,-1775.449467,-965.350559,230.974052,1278.463085,585.331981,356.960231,-472.777985,2.4430700530224843
357,-59.507025,-1339.450122,-342.320658,495.929809,900.598364,461.160183,514.804031,-31.048062,2.442902744382374
358,185.855572,-1127.450777,-569.290758,677.885566,773.733643,422.988384,672.647832,142.68186,2.4424142859669797
359,311.218168,-795.451432,-244.260857,822.841322,697.868923,372.816585,725.491632,200.411783,2.4416090903203025
360,106.580765,-831.452087,-162.230957,690.797079,523.004202,412.644786,512.335433,2.141706,2.440499246341643
361,-111.056639,-831.452742,-171.201056,366.752836,433.139481,470.472988,294.179233,-334.128372,2.4391045122458905
362,-317.694042,-1132.453397,-949.171156,107.708593,250.274761,466.301189,50.023034,-528.398449,2.4374521194936873
363,-560.331445,-1344.454052,-1347.141255,-160.335651,-93.58996,252.12939,-148.133165,-747.668527,2.4355763870252995
364,-436.968849,-1316.454706,-1444.111355,-202.379894,-345.454681,-20.042408,-232.289365,-625.938604,2.4335181499830836
365,-70.606252,-1144.455361,-1009.081454,168.575863,-301.319401,-124.214207,-121.445564,-312.208681,2.4313240119641346
366,163.756344,-824.456016,-367.051554,317.53162,-584.184122,-376.386006,2.398236,-118.478759,2.429045434578264
367,8.118941,-1163.456671,-715.021653,160.487376,-439.048843,-114.557805,220.242037,-20.748836,2.4267376825689686
368,-37.518463,-1176.457326,-751.991753,42.443133,143.086437,245.270397,480.085837,62.981087,2.424458646863025
369,46.844134,-1029.457981,-863.961852,-220.60111,783.221716,605.098598,727.929638,150.711009,2.422267571532058
370,-4.793269,-1007.458636,-591.931952,170.354647,585.356995,764.926799,839.773438,110.440932,2.420223713672236
371,-83.430673,-910.459291,183.097949,1299.310403,474.492275,1082.755,882.617239,-41.829146,2.418384967545662
372,-420.068076,-1507.459946,-497.872151,1732.26616,1021.627554,1535.583202,952.461039,-293.099223,2.416806485905348
373,-566.70548,-1544.460601,-617.84225,898.221917,707.762833,887.411403,361.30484,-587.3693,2.41553933219012
374,-709.342883,-1748.461256,-1250.81235,39.177674,74.898113,104.239604,-133.85136,-649.639378,2.414629197192212
375,-509.980287,-1515.461911,-1302.782449,-312.866569,-488.966608,-365.932195,-312.007559,-522.909455,2.4141152128566072
376,-417.61769,-1297.462566,-1019.752549,164.089187,307.168671,-23.103993,-1.163758,-334.179532,2.41402889407784
377,-154.255093,-1077.463221,-718.722648,588.044944,760.303951,254.724208,345.680042,-69.44961,2.414393236750023
378,-26.892497,-1102.463876,-638.692748,528.000701,522.43923,163.552409,486.523843,37.280313,2.4152219969542816
379,234.4701,-939.46453,-421.662847,615.956458,548.574509,247.380611,671.367643,169.010236,2.416519172110343
380,197.832696,-921.465185,-611.632947,290.912214,243.709789,162.208812,381.211444,-53.259842,2.4182787002707697
381,-106.804707,-1007.46584,-759.603046,-51.132029,-114.154932,40.037013,5.055244,-379.529919,2.4204843886087737
382,-291.44211,-1052.466495,-599.573146,12.823728,-27.019653,170.865214,-179.100955,-533.799997,2.423110076669369
383,-395.079514,-1146.46715,-607.543245,151.779485,-78.884373,85.693416,-190.257155,-581.070074,2.42612003425511
384,-304.716917,-1194.467805,-825.513345,-74.264759,-322.749094,-139.478383,-268.413354,-504.340151,2.4294695880454222
385,-310.354321,-1125.46846,-567.483444,-261.309002,-513.613815,-272.650182,-264.569554,-529.610229,2.4331059653497022
386,-194.991724,-1074.469115,-661.453544,78.646755,-245.478535,-176.821981,-82.725753,-370.880306,2.4369693379157655
387,-84.629128,-1073.46977,-950.423643,364.602512,-10.343256,-39.993779,72.118047,-231.150383,2.440994043599404
388,9.733469,-876.470425,-623.393743,208.558268,-376.207977,-153.165578,103.961848,-135.420461,2.445109959082308
389,-10.903934,-938.47108,-625.363842,94.514025,-647.072697,-26.337377,249.805648,-105.690538,2.4492439928273395
390,-153.541338,-1094.471735,-745.333942,49.469782,-821.937418,132.490825,189.649449,-230.960616,2.4533216641898163
391,-388.178741,-1288.47239,-987.304041,-123.574461,-700.802139,68.319026,33.49325,-455.230693,2.4572687321508635
392,-401.816145,-1242.473045,-925.274141,145.381295,-305.666859,109.147227,-55.66295,-493.50077,2.46101283557331
393,-370.453548,-1172.4737,-767.24424,464.337052,316.46842,298.975428,-33.819149,-462.770848,2.464485106248942
394,-411.090952,-1279.474354,-839.21434,406.292809,699.603699,370.80363,104.024651,-403.040925,2.4676217163311183
395,-567.728355,-1444.475009,-813.184439,496.248566,1150.738979,832.631831,452.868452,-335.311002,2.470365323027287
396,-518.365758,-1246.475664,-615.154539,701.204322,1261.874258,905.460032,653.712252,-148.58108,2.4726663756355025
397,-434.003162,-1002.476319,-855.124638,582.160079,792.009537,652.288233,666.556053,-143.851157,2.4744842530973616
398,-197.640565,-796.476974,-1031.094738,133.115836,-158.855184,-18.883565,564.399853,-16.121234,2.4757882041338912
399,-73.277969,-833.477629,-815.064837,144.071593,-770.719904,-560.055364,302.243654,38.608688,2.4765580666367057
400,132.084628,-926.478284,-457.034937,563.02735,178.415375,-116.227163,233.087454,86.338611,2.4767847481914207
401,-135.552776,-1346.478939,-991.005036,83.983106,739.550654,381.601038,118.931255,-201.931467,2.476470455285353
402,-256.190179,-1262.479594,-1413.975136,108.938863,515.685934,559.42924,31.775055,-427.201544,2.475628664756011
403,-196.827582,-1050.480249,-1231.945235,-7.10538,196.821213,252.257441,-158.381144,-457.471621,2.4742838372210936
404,-359.464986,-926.480904,-315.915335,160.850377,223.956492,-112.914358,-354.537344,-643.741699,2.472470878440205
405,-308.102389,-954.481559,-538.885434,-24.193867,95.091772,-184.086156,-255.693543,-530.011776,2.4702343606377526
406,2.260207,-881.482214,-694.855534,-73.23811,-218.772949,-133.257955,-24.849742,-89.281853,2.467627521613232
407,154.622804,-668.482869,-181.825633,122.717647,-386.63767,-125.429754,176.994058,98.448069,2.464711064834175
408,210.9854,-601.483524,-53.795733,120.673404,-527.50239,-323.601553,241.837859,120.177992,2.4615517885142255
409,289.347997,-746.484178,-652.765832,324.62916,-280.367111,2.226649,498.681659,250.907914,2.4582210758041887
410,65.710594,-730.484833,-288.735932,264.584917,-631.231832,-165.94515,212.52546,-69.362163,2.4547932815648705
411,-129.92681,-869.485488,-707.706031,-145.459326,-265.096552,-97.116949,-48.63074,-315.63224,2.4513440536646387
412,-300.564213,-1070.486143,-1287.676131,-103.503569,975.038727,476.711252,-99.786939,-436.902318,2.4479486282914436
413,-221.201617,-694.486798,-144.64623,140.452187,451.174006,10.539454,-369.943139,-532.172395,2.4446801393517106
414,-310.83902,-1113.487453,-689.61633,383.407944,387.309286,142.367655,-152.099338,-443.442472,2.4416079816346548
415,-459.476424,-1303.488108,-788.586429,720.363701,776.444565,367.195856,54.744462,-435.71255,2.4387962660624725
416,-433.113827,-1082.488763,-505.556529,619.319458,592.579844,136.024057,62.588263,-384.982627,2.4363024030611617
417,-367.75123,-970.489418,-303.526628,925.275214,701.715124,411.852259,393.432063,-208.252704,2.434175846933219
418,30.611366,-681.490073,171.503272,1875.230971,1500.850403,1271.68046,1240.275864,398.477218,2.4324570301736066
419,263.973963,-498.490728,562.533173,2484.186728,2293.985682,1998.508661,1917.119665,829.207141,2.4311765120448197
420,-147.663441,-303.491383,633.563073,1955.142485,2213.120962,1974.336863,1649.963465,242.937063,2.4303543605327413
421,-540.300844,-839.492038,60.592974,1334.098241,1477.256241,1334.165064,858.807266,-331.333014,2.4299997811731266
422,-43.938248,-655.492693,-157.377126,716.053998,594.39152,593.993265,61.651066,-330.603091,2.430111000309824
423,217.424349,-750.493348,-842.347225,-296.990245,-524.4732,-440.178534,-578.505133,-161.873169,2.4306754042673955
424,-94.213054,-1063.494002,-964.317325,-472.034488,-663.337921,-671.350332,-545.661333,-191.143246,2.4316699298423994
425,-305.850458,-1129.494657,-790.287424,-290.078732,-395.202642,-403.522131,-302.817532,-275.413323,2.4330616955878233
426,-247.487861,-1378.495312,-1431.257524,-229.122975,-271.067362,-315.69393,-73.973732,-106.683401,2.434808857727643
427,-41.125265,-1032.495967,-799.227623,-192.167218,-292.932083,-441.865729,-89.129931,-48.953478,2.43686166932825
428,214.237332,-941.496622,-932.197723,-373.211461,-444.796804,-545.037527,0.713869,97.776444,2.439163716693715
429,472.599928,-711.497277,-792.167822,-55.255704,-307.661524,-466.209326,129.55767,347.506367,2.441653302950716
430,280.962525,-805.497932,-821.137922,164.700052,-163.526245,-208.381125,130.40147,168.23629,2.444264945537365
431,-221.674878,-1203.498587,-1172.108021,-494.344191,-422.390966,-73.552923,-44.754729,-234.033788,2.446930951879487
432,-331.312282,-1067.499242,-842.078121,-51.388434,-247.255686,165.275278,-249.910929,-445.303865,2.4495830359785447
433,-230.949685,-958.499897,-861.04822,-7.432677,-143.120407,197.103479,-272.067128,-354.573942,2.452153937975597
434,-218.587089,-951.500552,-683.01832,21.523079,-81.985128,-72.06832,-276.223327,-337.84402,2.4545790090015234
435,-91.224492,-929.501207,-636.988419,79.478836,-40.849848,-109.240118,-153.379527,-209.114097,2.456797724758977
436,-88.861896,-957.501862,-768.958519,6.434593,-232.714569,-60.411917,-6.535726,-96.384174,2.458755093268565
437,-108.499299,-930.502517,-550.928618,177.39035,-361.57929,-88.583716,62.308074,-79.654252,2.4604029249926525
438,-193.136702,-1116.503172,-693.898718,58.346106,-327.44401,-122.755515,202.151875,-55.924329,2.461700937048628
439,-138.774106,-1361.503826,-1018.868817,238.301863,271.691269,51.072687,515.995675,183.805593,2.4626176673467004
440,-269.411509,-1337.504481,-825.838917,506.25762,471.826548,263.900888,493.839476,100.535516,2.4631311791290047
441,-730.048913,-1587.505136,-838.809016,429.213377,415.961827,440.729089,245.683276,-271.734561,2.46322954142958
442,-792.686316,-1497.505791,-688.779116,438.169133,680.097107,750.55729,220.527077,-458.004639,2.4629110762935156
443,-652.32372,-1201.506446,-509.749215,314.12489,634.232386,768.385492,225.370877,-482.274716,2.46218436905845
444,-557.961123,-1159.507101,-913.719315,-26.919353,135.367665,432.213693,60.214678,-452.544793,2.461068043481591
445,-134.598526,-1007.507756,-1751.689414,-610.963596,-163.497055,107.041894,33.058478,-228.814871,2.4595903088611153
446,378.76407,-502.508411,-1511.659514,-350.00784,179.638224,32.870096,151.902279,116.915052,2.4577882914277853
447,533.126667,-216.509066,-275.629613,383.947917,408.773503,-149.301703,142.74608,208.644974,2.4557071670542143
448,633.489263,-132.509721,228.400287,534.903674,8.908783,-372.473502,135.58988,274.374897,2.453399116639539
449,638.85186,153.489624,972.430188,187.859431,-569.955938,-570.645301,146.433681,257.10482,2.4509221292832044
450,405.214456,-275.511031,-132.539912,145.815187,-721.820659,-337.817099,149.277481,154.834742,2.448338681484971
451,208.577053,-740.511686,-1108.510011,291.770944,-516.685379,-100.988898,68.121282,-5.435335,2.445714323037355
452,-153.06035,-973.512341,-881.480111,-54.273299,-502.5501,-34.160697,-131.034918,-317.705412,2.4431162019673924
453,-287.697754,-1014.512996,-761.45021,-12.317542,104.585179,329.667504,-146.191117,-449.97549,2.440611561811071
454,-323.335157,-913.51365,-608.42031,1.638215,34.720459,246.495706,-203.347317,-534.245567,2.4382662446588483
455,43.027439,-549.514305,-710.390409,-341.406029,-404.144262,56.323907,-149.503516,-250.515644,2.436143232805624
456,-132.609964,-943.51496,-1378.360509,-637.450272,-626.008983,-315.847892,-43.659716,-204.785722,2.4343012605023864
457,169.752632,-427.515615,-440.330608,457.505485,79.126297,-505.019691,-39.815915,-47.055799,2.432793525285045
458,295.115229,-339.51627,-64.300708,660.461242,396.261576,-312.191489,166.027885,99.674123,2.4316665257093906
459,421.477826,-129.516925,331.729193,828.416998,650.396855,-170.363288,274.871686,199.404046,2.4309590491238176
460,-47.159578,-725.51758,-170.240907,928.372755,738.532135,52.464913,287.715486,-13.866031,2.430701329448718
461,-434.796981,-981.518235,-382.211006,870.328512,752.667414,312.293115,134.559287,-402.136109,2.4309143908974318
462,-409.434385,-895.51889,-332.181106,785.284269,531.802693,299.121316,-127.596912,-543.406186,2.431609589269101
463,21.928212,-526.519545,15.848795,682.240025,-255.062027,103.949517,-289.753112,-302.676263,2.432788357973168
464,235.290809,-356.5202,413.878695,894.195782,-783.926748,88.777718,-189.909311,-84.946341,2.4344421614141094
465,-126.346595,-954.520855,-289.091404,1196.151539,-27.791469,760.60592,467.934489,-62.216418,2.4365526538776137
466,-143.983998,-999.52151,-18.061504,1839.107296,1894.343811,1626.434121,1302.77829,186.513504,2.439092037716243
467,-58.621402,-882.522165,223.968397,2439.063052,3303.47909,2175.262322,1816.62209,399.243427,2.442023610527928
468,-236.258805,-912.52282,-59.001703,1861.018809,2231.614369,1718.090523,1569.465891,175.97335,2.445302487240306
469,180.103791,-133.523474,172.028198,1096.974566,1016.749649,651.918725,822.309691,31.703272,2.4488764796338316
470,676.466388,430.475871,678.058098,848.930323,292.884928,-95.253074,229.153492,215.433195,2.452687112920834
471,-143.171015,-798.524784,-647.912001,-312.113921,-414.979793,-585.424873,-481.002708,-176.836882,2.4566707565975134
472,-640.808419,-1287.525439,-948.882101,-437.158164,-381.844513,-387.596671,-611.158907,-579.10696,2.4607598449386985
473,-469.445822,-1084.526094,-883.8522,-199.202407,-273.709234,-136.76847,-433.315107,-540.377037,2.464884161234296
474,-496.083226,-1278.526749,-1380.8223,-766.24665,-266.573955,-198.940269,-366.471306,-636.647114,2.468972159180819
475,-46.720629,-1007.527404,-998.7924,-318.290894,-41.438675,-294.112068,-311.627506,-360.917192,2.4729522947364186
476,209.641967,-994.528059,-908.762499,-20.335137,-278.303396,-582.283866,-306.783705,-68.187269,2.4767543422052394
477,244.004564,-868.528714,-807.732599,-12.37938,-182.168117,-585.455665,-219.939904,-20.457347,2.4803106693061943
478,195.367161,-894.529369,-870.702698,121.576377,49.967163,-508.627464,-55.096104,31.272576,2.4835574474609623
479,244.729757,-824.530024,-745.672798,126.532133,-0.897558,-366.799263,70.747697,135.002499,2.4864357754552024
480,93.092354,-852.530679,-685.642897,104.48789,-37.762279,-200.971061,11.591497,-53.267579,2.488892696926919
481,-34.54505,-836.531334,-623.612997,156.443647,-37.626999,-29.14286,-187.564702,-261.537656,2.490882094751863
482,-152.182453,-871.531989,-599.583096,185.399404,-27.49172,101.685341,-249.720902,-437.807733,2.4923654482591027
483,-135.819857,-844.532644,-544.553196,316.355161,135.643559,217.513542,-179.877101,-413.077811,2.493312442249463
484,-287.45726,-924.533298,-582.523295,302.310917,112.778838,99.341744,-127.033301,-417.347888,2.493701419934103
485,-542.094663,-1082.533953,-607.493395,268.266674,71.914118,43.169945,-52.1895,-410.617966,2.493519675090365
486,-638.732067,-1194.534608,-647.463494,237.222431,2.049397,-92.001854,-78.3457,-388.888043,2.492763581880488
487,-620.36947,-1350.535263,-927.433594,117.178188,-41.815324,-160.173652,13.498101,-291.15812,2.4914385638338197
488,-395.006874,-1204.535918,-901.403693,182.133944,-229.680044,-233.345451,180.341901,-146.428198,2.48955890639841
489,42.355723,-977.536573,-906.373793,257.089701,-299.544765,-251.51725,258.185702,87.301725,2.4871474201737724
490,204.718319,-917.537228,-1050.343892,-17.954542,-272.409486,-120.689049,204.029503,110.031648,2.4842349644009363
491,-56.919084,-1132.537883,-1034.313992,-217.998785,-37.274206,-22.860847,-59.126697,-204.23843,2.4808598424743025
492,-96.556487,-983.538538,-725.284091,-76.043029,-201.138927,-9.032646,-279.282896,-403.508507,2.477067083125904
493,91.806109,-594.539193,-205.254191,202.912728,-101.003648,12.795555,-199.439096,-242.778584,2.472907622497927
494,200.168706,-401.539848,-346.22429,390.868485,-35.868368,13.623756,-114.595295,-158.048662,2.468437403552785
495,515.531302,209.459497,500.80561,198.824242,-376.733089,-268.548042,-182.751495,-49.318739,2.4637164101679843
496,324.893899,-309.541158,-64.164489,564.779998,248.40219,-14.719841,69.092306,14.411183,2.458807653828475
497,315.256495,-498.541813,-984.134589,105.735755,-170.46253,-211.89164,69.936106,8.141106,2.4537761310708346
498,95.619092,-1028.542468,-1673.104688,-607.308488,-1344.327251,-416.063439,169.779907,44.871029,2.448687769765394
499,247.981689,-658.543122,-855.074788,-89.352731,-2300.191972,-602.235237,72.623707,110.600951,2.4436083819622283
500,236.344285,-397.543777,-55.044887,438.603025,-2417.056692,-844.407036,-149.532492,-22.669126,2.4386026403959904
501,40.706882,-493.544432,173.985013,480.558782,-461.921413,-371.578835,-38.688692,-136.939203,2.4337330948666867
502,-219.930522,-705.545087,-231.985086,965.514539,1938.213866,882.249367,190.155109,-281.209281,2.429059243614221
503,-339.567925,-769.545742,-377.955186,1413.470296,2301.349146,1167.077568,400.998909,-224.479358,2.4246366735106055
504,-383.205329,-891.546397,-733.925285,903.426052,1576.484425,843.905769,474.84271,-252.749436,2.4205162814322256
505,-302.842732,-1037.547052,-797.895385,681.381809,1148.619704,597.73397,463.686511,-165.019513,2.416743587572769
506,-38.480135,-909.547707,-296.865484,1133.337566,1123.754984,456.562172,391.530311,144.71041,2.4133581497424297
507,-46.117539,-743.548362,-25.835584,953.293323,747.890263,-10.609627,199.374112,84.440332,2.4103930858973115
508,67.245058,-521.549017,-115.805683,578.24908,204.025542,-415.781426,146.217912,160.170255,2.407874710280484
509,37.607654,-596.549672,-536.775783,270.204836,-56.839178,-382.953225,191.061713,117.900178,2.405822286657985
510,241.970251,-519.550327,-629.745882,238.160593,-232.703899,-407.125023,-74.094487,87.6301,2.4042479002237416
511,72.332847,-907.550982,-1301.715982,-173.88365,-579.56862,-416.296822,-339.250686,-79.639977,2.4031564478506375
512,-125.304556,-805.551637,-913.686081,-49.927893,-582.43334,-169.468621,-445.406886,-268.910054,2.4025457445040344
513,-140.941959,-524.552292,-434.656181,-9.972137,-462.298061,-183.640419,-457.563085,-406.180132,2.4024067418315744
514,-69.579363,-639.552946,-594.62628,-50.01638,-137.162782,-172.812218,-333.719285,-320.450209,2.402723853221242
515,167.783234,-566.553601,-412.59638,365.939377,19.972498,98.015983,17.124516,-9.720287,2.4034753780001057
516,557.14583,-201.554256,62.433521,829.895134,-478.892223,102.844184,204.968316,234.009636,2.404634015950078
517,611.508427,-98.554911,44.463421,459.85089,-1193.756944,-234.327614,183.812117,266.739559,2.4061674619647717
518,394.871023,-354.555566,-566.506678,9.806647,-1004.621664,-474.499413,233.655917,189.469481,2.408039069482835
519,434.23362,-266.556221,-443.476778,329.762404,592.513615,-20.671212,349.499718,181.199404,2.4102085703264784
520,165.596217,-523.556876,-114.446877,860.718161,1113.648894,204.156989,120.343519,-33.070673,2.412632837766226
521,-86.041187,-974.557531,-537.416977,509.673917,853.784174,173.985191,-38.812681,-175.340751,2.4152666790392607
522,-369.67859,-1117.558186,-981.387076,50.629674,411.919453,188.813392,-200.96888,-380.610828,2.418063643181682
523,-693.315994,-1073.558841,-850.357176,63.585431,113.054732,-42.358407,-324.12508,-575.880906,2.420976829904355
524,-686.953397,-870.559496,-550.327275,219.541188,75.190012,-143.530206,-287.281279,-565.150983,2.4239596853542213
525,-391.590801,-746.560151,-500.297375,228.496944,105.325291,-52.702004,-87.437479,-349.42106,2.4269667709606506
526,-4.228204,-592.560806,-492.267474,105.452701,66.46057,-118.873803,36.406322,-115.691138,2.4299544921680574
527,354.134393,-550.561461,-523.237574,5.408458,188.595849,-71.045602,179.250122,112.038785,2.432881774695569
528,585.496989,-277.562116,58.792327,94.364215,19.731129,-296.2174,215.093923,246.768708,2.435710677031212
529,584.859586,-273.56277,23.822227,961.319971,461.866408,-49.389199,366.937723,392.49863,2.438406929146439
530,190.222182,-709.563425,-437.147872,897.275728,527.001687,148.439002,306.781524,168.228553,2.4409403888864665
531,11.584779,-601.56408,30.882028,747.231485,217.136967,200.267203,119.625324,-133.041524,2.443285409127701
532,-219.052625,-1072.564735,-873.088071,327.187242,16.272246,302.095405,-51.530875,-277.311602,2.44542111056604
533,-477.690028,-1387.56539,-1340.058171,-19.857002,-199.592475,172.923606,-155.687074,-468.581679,2.4473315568756537
534,-324.327431,-904.566045,-803.02827,-370.901245,-788.457195,-483.248193,-438.843274,-520.851757,2.449005830920571
535,108.035165,-452.5667,-695.99837,39.054512,-666.321916,-593.419992,-404.999473,-337.121834,2.450438012671889
536,213.397762,-693.567355,-679.968469,81.010269,-234.186637,-355.59179,-191.155673,-115.391911,2.4516270614409024
537,645.760358,-188.56801,-70.938569,573.966026,271.948643,-106.763589,84.688128,193.338011,2.4525766069413177
538,771.122955,-119.568665,31.091332,673.921782,241.083922,-163.935388,263.531928,363.067934,2.4532946555006547
539,654.485551,-233.56932,-300.878768,385.877539,211.219201,-85.107187,388.375729,347.797857,2.4537932194119945
540,522.848148,-246.569975,-398.848867,167.833296,-81.645519,-166.278985,120.219529,88.527779,2.4540878789146827
541,246.210745,-513.57063,-609.818967,-87.210947,-374.51024,-212.450784,-204.93667,-218.742298,2.454197287581874
542,-82.426659,-743.571285,-465.789066,-65.255191,-325.374961,-41.622583,-339.09287,-470.012376,2.454142632943599
543,-192.064062,-1009.57194,-1114.759166,-26.299434,-52.239681,32.205619,-271.249069,-507.282453,2.4539470649611843
544,-126.701466,-786.572594,-838.729265,-521.343677,-378.104402,-299.96618,-384.405269,-523.55253,2.453635105472936
545,165.661131,-273.573249,-161.699365,170.61208,-175.969123,-224.137979,-262.561468,-367.822608,2.453232051939023
546,366.023727,-301.573904,-260.669464,515.567836,-195.833843,-260.309778,-140.717668,-58.092685,2.4527633887194167
547,468.386324,-315.574559,-187.639564,711.523593,-69.698564,-311.481576,-84.873867,83.637238,2.4522542187235423
548,534.748921,-321.575214,-280.609663,301.47935,-78.563285,-442.653375,29.969934,187.36716,2.4517287275824704
549,506.111517,-372.575869,-353.579763,194.435107,171.571995,-267.825174,228.813734,245.097083,2.451209691529512
550,409.474114,-387.576524,-333.549862,363.390863,171.707274,-74.996973,113.657535,137.827006,2.4507180389554537
551,201.83671,-501.577179,-467.519962,518.34662,41.842553,-26.168771,-101.498665,-137.443072,2.4502724741593473
552,32.199307,-738.577834,-1324.490061,-115.697623,-403.022167,14.65943,-266.654864,-312.713149,2.449889170179494
553,47.561904,-787.578489,-1590.460161,-422.741866,-947.886888,-78.512369,-275.811064,-285.983227,2.4495815358019355
554,8.9245,-628.579144,-421.43026,240.21389,-1238.751609,-258.684167,-341.967263,-355.253304,2.4493600599493486
555,102.287097,-341.579799,625.59964,1406.169647,-320.616329,198.144034,57.876537,-199.523381,2.4492322346986266
556,236.649693,-163.580454,636.629541,1926.125404,939.51895,837.972235,713.720338,129.206541,2.4492025562094337
557,367.01229,-172.581109,535.659441,2033.081161,1522.654229,1143.800436,1123.564138,337.936464,2.449272600917922
558,585.374886,-30.581764,435.689342,1977.036917,1797.789509,857.628638,1153.407939,475.666387,2.449441172508341
559,449.737483,-219.582418,-81.280758,1400.992674,1059.924788,262.456839,620.251739,174.396309,2.4497045134672653
560,264.10008,-579.583073,-539.250857,542.948431,-146.939933,-516.71496,-179.90446,-56.873768,2.450056573494347
561,86.462676,-759.583728,-962.220957,-154.095812,-225.804653,-631.886759,-633.060659,-222.143846,2.4504893257291993
562,-174.174727,-1057.584383,-1235.191056,-239.140056,218.330626,-361.058557,-590.216859,-378.413923,2.450993120690134
563,-27.812131,-837.585038,-844.161156,-238.184299,201.465905,-140.230356,-368.373058,-311.684,2.4515570670344933
564,94.550466,-722.585693,-493.131255,-200.228542,-130.398815,-184.402155,-343.529258,-250.954078,2.452169427762308
565,217.913062,-547.586348,-372.101355,237.727215,-306.263536,-440.573954,-375.685457,-213.224155,2.45281802030734
566,377.275659,-387.587003,-373.071454,368.682972,-376.128257,-568.745752,-297.841657,-103.494232,2.4534906090963093
567,458.638256,-332.587658,-472.041554,131.638728,-475.992978,-632.917551,-273.997856,3.23569,2.454175279603693
568,559.000852,-154.588313,-207.011653,613.594485,-502.857698,-659.08935,-130.154056,180.965613,2.4548607836728764
569,580.363449,-40.588968,68.018247,809.550242,-659.722419,-648.261148,-15.310255,207.695536,2.4555368468933643
570,583.726045,280.410377,641.048148,641.505999,-1013.58714,-684.432947,-173.466455,28.425458,2.45619443008928
571,362.088642,-217.590278,-182.921952,850.461755,-560.45186,-232.604746,-148.622654,-46.844619,2.4568259384505278
572,177.451238,-375.590933,-321.892051,961.417512,-109.316581,21.223455,-238.778854,-214.114697,2.4574253734828013
573,283.813835,-104.591588,57.137849,932.373269,219.818698,36.051657,-196.935053,-159.384774,2.4579884247191197
574,80.176432,-408.592242,-372.83225,363.329026,284.953978,33.879858,-199.091253,-206.654851,2.458512499973081
575,78.539028,-658.592897,-1181.80235,138.284782,517.089257,271.708059,29.752548,-89.924929,2.458996694769758
576,238.901625,-457.593552,-755.772449,297.240539,458.224536,-90.46374,45.596349,63.804994,2.459441703410734
577,252.264221,-615.594207,-585.742549,546.196296,459.359816,-79.635538,149.440149,221.534917,2.459849675862735
578,231.626818,-694.594862,-525.712648,657.152053,408.495095,50.192663,409.28395,378.264839,2.4602240262545756
579,145.989414,-646.595517,-308.682748,1073.107809,531.630374,98.020864,482.12775,298.994762,2.460569200178489
580,-34.647989,-652.596172,-511.652847,895.063566,243.765654,-49.150935,124.971551,-24.275316,2.460890409178648
581,-147.285392,-671.596827,-624.622947,727.019323,108.900933,90.677267,-71.184649,-221.545393,2.46119334173762
582,-2.922796,-538.597482,-545.593046,653.97508,-22.963788,114.505468,-231.340848,-272.81547,2.461483860714162
583,232.439801,-332.598137,-516.563146,395.930836,-266.828508,28.333669,-204.497048,-137.085548,2.461767697525111
584,282.802397,-37.598792,45.466755,-17.113407,-840.693229,-371.838129,-365.653247,-124.355625,2.4620501533912313
585,128.164994,-420.599447,-545.503345,339.84235,-461.55795,-169.009928,-130.809447,8.374298,2.4623358176820616
586,-9.47241,-599.600102,-1235.473444,305.798107,5.57733,92.818273,161.034354,74.10422,2.462628312807828
587,43.890187,-270.600757,-293.443544,601.753863,236.712609,-30.353526,237.878154,113.834143,2.4629300742360947
588,138.252784,-144.601412,54.586357,1180.70962,417.847888,-53.525324,443.721955,171.564066,2.463242173084194
589,269.61538,-143.602067,-261.383743,1354.665377,898.983168,281.302877,646.565755,275.293988,2.4635641873905416
590,57.977977,-479.602721,-453.353842,998.621134,607.118447,175.131078,432.409556,166.023911,2.4638941266401746
591,-291.659427,-679.603376,-308.323942,1247.576891,725.253726,434.959279,230.253357,-104.246167,2.464228412459037
592,-575.29683,-809.604031,-409.294041,912.532647,456.389006,299.787481,-26.902843,-502.516244,2.4645619166482047
593,-360.934234,-266.604686,210.735859,1272.488404,173.524285,250.615682,-51.059042,-496.786321,2.4648880559561794
594,127.428363,214.394659,221.76576,996.444161,-406.340436,44.443883,-46.215242,-66.056399,2.465198941238069
595,402.79096,150.394004,-466.20434,239.399918,-744.205156,-220.727915,70.628559,166.673524,2.4654855769772857
596,563.153556,83.393349,-562.174439,407.355674,38.930123,-207.899714,224.472359,310.403447,2.4657381055979863
597,542.516153,127.392694,181.855461,936.311431,447.065402,-208.071513,46.31616,245.133369,2.4659460896203025
598,645.878749,-75.607961,339.885362,1182.267188,157.200682,-154.243312,193.15996,410.863292,2.466098823545457
599,914.241346,101.391384,167.915262,752.222945,-740.664039,-641.41511,-40.996239,462.593214,2.466185666437342
600,526.603942,-237.609271,-608.054837,-87.821299,-1539.52876,-1022.586909,-418.152439,106.323137,2.4661963855167945
601,245.966539,-259.609926,-860.024937,-275.865542,-1298.39348,-712.758708,-455.308638,-131.94694,2.466121500722033
602,-152.670864,-267.610581,-660.995036,-148.909785,-361.258201,-212.930507,-501.464838,-503.217018,2.46595262012227
603,-182.308268,-301.611236,-504.965136,280.045972,740.877078,312.897695,-357.621037,-425.487095,2.4656827563010792
604,31.054329,-141.611891,-263.935235,694.001728,571.012358,112.725896,-298.777236,-180.757172,2.465306614342609
605,-6.583075,-165.612545,-157.905335,330.957485,-400.852363,-475.445903,-480.933436,-273.02725,2.4648208428397145
606,101.779522,-344.6132,-238.875434,566.913242,-85.717084,-516.617702,-320.089635,-155.297327,2.4642242403732966
607,191.142118,-537.613855,-576.845534,502.868999,409.418196,-414.7895,-35.245835,26.432596,2.463517911154464
608,274.504715,-577.61451,-750.815633,381.824755,472.553475,-213.961299,146.597966,173.162518,2.4627053649376407
609,794.867312,164.384835,185.214267,626.780512,239.688754,-168.133098,154.441766,502.892441,2.4617925578607953
610,559.229908,-0.61582,57.244168,676.736269,284.824033,53.695104,163.285567,332.622363,2.4607878725026593
611,214.592505,-428.616475,-637.725932,606.692026,349.959313,256.523305,69.129367,-5.647714,2.459702037118266
612,277.955101,-237.61713,-253.696032,768.647782,79.094592,195.351506,-112.026832,-108.917791,2.4585479856750485
613,295.317698,-151.617785,-86.666131,848.603539,-453.770129,-70.820293,-180.183032,-138.187869,2.457340661914782
614,178.680294,-358.61844,-560.636231,350.559296,-840.634849,-393.992091,-297.339231,-177.457946,2.4560967721666778
615,280.042891,-174.619095,-495.60633,160.515053,-470.49957,-420.16389,-199.495431,-81.728023,2.4548344929924037
616,110.405488,-451.61975,-1096.57643,-236.529191,-395.364291,-487.335689,-170.65163,-120.998101,2.453573140917881
617,472.768084,27.379595,-348.546529,405.426566,329.770989,-326.507488,-54.80783,149.731822,2.4523328124683497
618,598.130681,205.37894,-67.516629,521.382323,170.906268,-251.679286,124.035971,318.461744,2.4511340034479074
619,435.493277,77.378285,-315.486728,449.33808,-132.958453,-373.851085,83.879772,248.191667,2.4499972168751367
620,222.855874,29.377631,-854.456828,168.293837,49.176827,-296.022884,-58.276428,-5.07841,2.4489425691925963
621,-306.78153,-459.623024,-1253.426927,-279.750407,222.312106,169.805317,-76.432627,-397.348488,2.4479894043076125
622,-206.418933,-398.623679,-285.397027,805.20535,463.447385,491.633519,-6.588827,-305.618565,2.44715592470049
623,251.943664,49.375666,379.632874,1200.161107,416.582665,517.46172,127.254974,39.111358,2.4464588482668126
624,263.30626,118.375011,213.662774,1040.116864,313.717944,254.289921,120.098774,-3.15872,2.4459130987625675
625,456.668857,154.374356,183.692675,1050.07262,357.853223,406.118123,412.942575,197.571203,2.445531536720287
626,553.031453,372.373701,350.722575,765.028377,170.988503,218.946324,284.786375,166.301126,2.4453247365325925
627,292.39405,16.373046,-40.247524,470.984134,-46.876218,-219.225475,-12.369824,-39.968952,2.4453008140921684
628,309.756646,-49.627609,-107.217624,738.939891,258.259061,-278.397274,175.473976,149.760971,2.4454653079733424
629,256.119243,115.371736,-104.187723,850.895647,-7.605659,-277.569072,386.317777,288.490893,2.4458211156814755
630,202.48184,204.371081,-92.157823,773.851404,-460.47038,-253.740871,136.161577,157.220816,2.446368485024525
631,-123.155564,-8.629574,-31.127922,604.807161,-443.335101,-209.91267,-196.994622,-218.049261,2.4471050592185892
632,-297.792967,-268.630229,37.901978,592.762918,-131.199821,-160.084469,-426.150822,-472.319339,2.4480259729666534
633,-116.430371,-646.630884,-1014.068121,18.718674,-568.064542,-250.256267,-454.307021,-420.589416,2.449123995485193
634,312.932226,-165.631539,-510.038221,127.674431,-460.929263,-94.428066,-188.46322,-162.859493,2.4503897153312235
635,532.294822,161.367807,-30.00832,-19.369812,-947.793983,-592.599865,-307.61942,-93.129571,2.451811760932674
636,128.657419,-628.632848,-1183.97842,162.585945,-184.658704,-405.771663,-99.775619,-157.399648,2.4533770499721497
637,139.020016,-563.633503,-1219.948519,-2.458299,801.476575,-139.943462,83.068181,-28.669726,2.4550710602366896
638,290.382612,-401.634158,-960.918619,-17.502542,468.611855,-430.115261,174.911982,137.060197,2.4568781142360683
639,465.745209,-178.634813,-518.888718,502.453215,577.747134,-281.28706,236.755782,233.79012,2.458781669814627
640,709.107805,336.364532,203.141182,1127.408972,773.882413,-13.458858,162.599583,233.520042,2.4607646091346935
641,636.470402,566.363877,219.171083,920.364728,460.017693,47.369343,-27.556617,19.249965,2.4628095187847485
642,238.832999,289.363222,-166.799017,440.320485,-125.847028,-26.802456,-235.712816,-332.020112,2.464898954347407
643,-7.804405,-174.637433,-463.769116,144.276242,-416.711749,6.025745,-218.869016,-381.29019,2.4670156835298895
644,-135.441808,-315.638088,-317.739216,-4.768001,-298.576469,-117.146053,-300.025215,-473.560267,2.4691429028863103
645,113.920788,-157.638743,-178.709315,-19.812244,-11.44119,-360.317852,-238.181415,-221.830344,2.4712644242156436
646,278.283385,-45.639398,-128.679415,115.143512,123.694089,-411.489651,-113.337614,-66.100422,2.4733648278668783
647,242.645981,-180.640053,-325.649514,605.099269,398.829369,-112.66145,178.506187,122.629501,2.4754295813864133
648,92.008578,-176.640708,-441.619614,456.055026,170.964648,-204.833248,313.349987,115.359423,2.477445123163364
649,184.371175,562.358637,784.410287,785.010783,-25.900073,-273.005047,232.193788,10.089346,2.479398911926941
650,99.733771,382.357983,663.440187,1454.966539,527.235207,316.823154,376.037588,-83.180731,2.481279444088162
651,323.096368,331.357328,282.470088,1389.922296,451.370486,305.651356,118.881389,-60.450809,2.483076241959758
652,488.458964,327.356673,103.499988,773.878053,-149.494235,-73.520443,-266.274811,-104.720886,2.4847798168001676
653,361.821561,-237.643982,-840.470111,-81.16619,-704.358956,-366.692242,-452.43101,-173.990963,2.4863816113810464
654,282.184157,-524.644637,-1485.440211,-645.210434,-1190.223676,-368.864041,-492.58721,-170.261041,2.487873927348926
655,188.546754,-475.645292,-1093.41031,-523.254677,-1407.088397,-468.035839,-391.743409,-203.531118,2.489249843022566
656,136.909351,-260.645947,154.61959,270.70108,-845.953118,-643.207638,-215.899609,-174.801196,2.490503127426654
657,323.271947,-91.646602,207.649491,829.656837,461.182162,-308.379437,89.944192,108.928727,2.4916281563050853
658,551.634544,67.352743,-84.320609,994.612593,936.317441,-91.551236,399.787992,356.65865,2.4926198355853644
659,678.99714,326.352088,101.709292,883.56835,262.45272,-176.723034,386.631793,438.388572,2.493473537289068
660,251.359737,-31.648567,-131.260808,656.524107,-150.412,-92.894833,161.475593,99.118495,2.49418505221771
661,-65.277667,-301.649222,-411.230907,400.479864,-175.276721,13.933368,-137.680606,-202.151582,2.4947505629112134
662,-408.91507,-547.649877,-526.201007,349.43562,204.858558,107.761569,-337.836805,-445.42166,2.495166639405628
663,-558.552473,-881.650532,-836.171106,418.391377,554.993838,104.589771,-233.993005,-459.691737,2.495430259240682
664,-182.189877,-427.651187,-601.141206,371.347134,38.129117,-221.582028,-231.149204,-337.961814,2.4955388520231043
665,30.17272,-169.651841,-564.111305,270.302891,-200.735604,-340.753827,-134.305404,-192.231892,2.495490367678029
666,237.535316,20.347504,-520.081405,16.258647,-193.600324,-355.925625,-104.461603,42.498031,2.495283366359245
667,416.897913,209.346849,-151.051504,379.214404,317.534955,-115.097424,81.382197,206.227953,2.494917126880761
668,423.260509,247.346194,-206.021604,308.170161,310.670234,-116.269223,295.225998,252.957876,2.4943917695171414
669,489.623106,539.345539,166.008297,904.125918,319.805514,21.558978,338.069798,220.687799,2.4937083881359103
670,375.985703,313.344884,-294.961803,726.081674,-145.059207,143.38718,257.913599,23.417721,2.492869185905937
671,134.348299,38.344229,-411.931902,386.037431,-406.923928,276.215381,179.757399,-135.852356,2.491877608299854
672,102.710896,27.343574,-233.902002,155.993188,-129.788648,314.043582,21.6012,-73.122433,2.4907384667991934
673,-47.926508,-99.657081,-170.872101,227.948945,268.346631,108.871783,-152.555,-195.392511,2.4894580466340224
674,-16.563911,-297.657736,-769.842201,-81.095298,-489.51809,-297.300015,-369.711199,-168.662588,2.488044192053119
675,336.798685,-50.658391,-235.8123,-16.139542,-798.38281,-372.471814,-265.867398,93.067334,2.4865063630268054
676,572.161282,225.340954,133.2176,640.816215,-512.247531,-386.643613,-70.023598,249.797257,2.4848556579250913
677,557.523879,136.340299,-30.752499,1033.771972,152.887748,-121.815411,284.820203,366.52718,2.483104797573525
678,636.886475,262.339644,137.277401,1209.727729,384.023028,-140.98721,475.664003,469.257102,2.4812680671452685
679,642.249072,301.338989,68.307302,958.683485,775.158307,-147.159009,351.507804,409.987025,2.4793612135705843
680,164.611668,-110.661665,-321.662798,465.639242,801.293586,-160.330808,-52.648396,-20.283052,2.477401297498199
681,-28.025735,-171.66232,-701.632897,57.594999,356.428866,-240.502606,-268.804595,-212.55313,2.4754065002858976
682,-11.663139,-167.662975,-1061.602997,-187.449244,138.564145,-121.674405,-311.960795,-227.823207,2.4733958879854927
683,-53.300542,-127.66363,-805.573096,-17.493488,186.699424,-29.846204,-167.116994,-244.093284,2.4713891357727658
684,-157.937945,-11.664285,-510.543196,192.462269,287.834704,36.981997,-89.273194,-326.363362,2.4694062177079754
685,-219.575349,228.33506,-28.513295,503.418026,239.969983,86.810199,-8.429393,-345.633439,2.4674670680495816
686,-248.212752,305.334405,490.516605,689.373783,-58.894738,-240.3616,-62.585593,-320.903517,2.465591221537672
687,164.149844,506.33375,773.546506,479.329539,-206.759458,-476.533399,-42.741792,113.826406,2.4637974410725314
688,563.512441,242.333095,-135.423594,1202.285296,509.375821,-324.705198,363.102008,598.556329,2.4621033420012144
689,686.875037,449.33244,359.606307,1196.241053,551.5111,-104.876996,482.945809,572.286251,2.460525022760332
690,510.237634,243.331785,9.636207,680.19681,192.64638,159.951205,422.78961,347.016174,2.459076711883342
691,588.600231,262.33113,-102.333892,730.152566,-42.218341,187.779406,142.63341,152.746097,2.457770441350361
692,288.962827,-58.669525,-586.303992,322.108323,-292.083062,-57.392392,-195.522789,-148.523981,2.4566157559315007
693,-12.674576,-372.67018,-1083.274091,-99.93592,-525.947782,-490.564191,-442.678989,-373.794058,2.4556194675535203
694,-101.31198,-388.670835,-1336.244191,-327.980163,-466.812503,-507.73599,-475.835188,-413.064136,2.4547854628158428
695,119.050617,-108.671489,-917.21429,-280.024407,-381.677224,-370.907789,-256.991388,-155.334213,2.454114570616129
696,185.413213,128.327856,-465.18439,-52.06865,-340.541945,-323.079587,-37.147587,10.39571,2.4536044954464002
697,77.77581,227.327201,-173.154489,246.887107,-96.406665,-75.251386,211.696213,85.125632,2.453249820324355
698,292.138407,536.326546,355.875411,686.842864,-218.271386,-302.423185,345.540014,210.855555,2.453042081573748
699,395.501003,495.325891,321.905312,1036.79862,370.863893,7.405016,497.383814,277.585478,2.45296991581033
700,380.8636,357.325236,42.935212,772.754377,583.999173,246.233218,185.227615,58.3154,2.453019277577701
701,335.226196,182.324581,-203.034887,487.710134,81.134452,-101.938581,-264.928585,-128.954677,2.4531737241642704
702,187.588793,11.323926,-633.004987,122.665891,-167.730269,-281.11038,-410.084784,-220.224754,2.4534147622730043
703,-16.048611,-133.676729,-592.975086,33.621648,-71.594989,-128.282179,-337.240984,-331.494832,2.4537222494635293
704,28.313986,-142.677384,-423.945186,421.577404,94.54029,12.546023,-267.397183,-327.764909,2.45407484169263
705,155.676583,-360.678039,-804.915285,322.533161,-14.324431,-125.625776,-142.553382,-101.034987,2.454450476891278
706,303.039179,-103.678694,-600.885385,385.488918,71.810849,-144.797575,35.290418,26.694936,2.454826883375588
707,603.401776,436.320651,213.144516,567.444675,101.946128,-185.969373,108.134219,233.424859,2.4551821010303114
708,732.764372,340.319996,-37.825584,818.400431,-4.918593,-68.141172,429.978019,498.154781,2.4554950026537687
709,622.126969,400.319341,146.204317,770.356188,-515.783313,-156.312971,391.82182,382.884704,2.4557458026310393
710,279.489565,422.318687,317.234217,814.311945,-146.648034,94.51523,217.66562,-12.385373,2.455916540217267
711,97.852162,530.318032,461.264118,759.267702,444.487245,204.343432,-53.490579,-268.655451,2.4559915251652176
712,128.214759,423.317377,189.294018,788.223458,848.622525,301.171633,-138.646779,-273.925528,2.4559577342114847
713,15.577355,57.316722,-258.676081,500.179215,454.757804,106.999834,-151.802978,-308.195606,2.4558051480256577
714,-37.060048,-118.683933,-618.646181,-50.865028,-385.106917,-324.171965,-354.959178,-411.465683,2.4555270195993697
715,57.302548,-225.684588,-771.61628,-299.909271,-920.971637,-434.343763,-324.115377,-178.73576,2.4551200666726314
716,-177.334855,-214.685243,-783.58638,-147.953515,-772.836358,-373.515562,-195.271577,-330.005838,2.454584582621636
717,-210.972259,-165.685898,-793.556479,153.002242,-73.701079,-41.687361,102.572224,-216.275915,2.453924462217992
718,403.390338,268.313447,-310.526579,726.957999,945.434201,-12.859159,275.416025,403.454008,2.453147140762605
719,530.752935,36.312792,-363.496678,920.913756,896.56948,44.969042,369.259825,562.18393,2.4522634472436837
720,389.115531,-76.687863,-443.466778,635.869512,677.704759,196.797243,106.103626,315.913853,2.451287374311595
721,502.478128,77.311482,-430.436877,418.825269,317.840039,187.625444,-167.052574,177.643776,2.4502357699475987
722,341.840724,32.310827,-424.406977,-54.218974,-81.024682,73.453646,-388.208773,-78.626302,2.449127957674637
723,276.203321,-161.689828,-959.377076,50.736783,55.110597,130.281847,-288.364973,-32.896379,2.4479852939650413
724,-5.434083,-259.690483,-1015.347176,106.692539,9.245877,-94.889952,-359.521172,-203.166457,2.446830673095475
725,56.928514,-42.691137,-886.317275,291.648296,-81.618844,-365.061751,-455.677372,-230.436534,2.4456879910424294
726,331.291111,138.308208,-836.287375,168.604053,-329.483565,-405.233549,-329.833571,-17.706611,2.444581581067688
727,590.653707,314.307553,-819.257474,-183.44019,-872.348285,-441.405348,-158.989771,322.023311,2.4435356343856087
728,751.016304,547.306898,-328.227574,33.515567,-1373.213006,-679.577147,26.85403,523.753234,2.4425736197141577
729,512.3789,676.306243,457.802327,486.471323,-950.077727,-411.748946,113.69783,349.483157,2.4417177155793977
730,367.741497,777.305588,745.832227,953.42708,606.057553,123.079256,103.541631,161.213079,2.4409882689674234
731,188.104094,531.304933,249.862128,814.382837,1239.192832,387.907457,-198.614569,-79.056998,2.440403293306409
732,246.46669,455.304278,22.892028,390.338594,586.328111,243.735658,-338.770768,-168.327076,2.4399780178308115
733,296.829287,280.303623,-174.078071,164.29435,319.463391,170.56386,-341.926967,-46.597153,2.439724499154262
734,215.191883,75.302968,-100.048171,96.250107,85.59867,54.392061,-312.083167,-16.86723,2.4396513043890247
735,392.55448,433.302313,175.98173,64.205864,-216.266051,-285.779738,-315.239366,50.862692,2.4397632734365
736,573.917076,492.301658,-460.98837,337.161621,64.869229,-194.951537,-127.395566,278.592615,2.440061366178711
737,592.279673,536.301003,-669.958469,-66.882623,323.004508,17.876665,7.448235,357.322538,2.440542598273128
738,790.64227,696.300348,-452.928569,228.073134,241.139787,-85.295134,85.292035,479.05246,2.4412000671435625
739,649.004866,717.299693,257.101332,141.028891,-643.724934,-435.466933,-82.864164,336.782383,2.442023067620915
740,230.367463,340.299039,309.131232,300.984648,-820.589654,-422.638732,-276.020364,-38.487694,2.4429972945721574
741,20.730059,15.298384,-338.838867,312.940404,-75.454375,122.18947,-208.176563,-131.757772,2.44410512781583
742,-85.907344,66.297729,-153.808967,114.896161,-187.319096,51.017671,-323.332763,-198.027849,2.445325992706919
743,-216.544748,52.297074,-295.779066,-159.148082,-279.183816,-23.154128,-359.488962,-293.297927,2.4466367880290756
744,-51.182151,288.296419,-3.749166,337.807675,352.951463,-82.325927,-326.645162,-277.568004,2.4480123712987734
745,195.180446,534.295764,337.280735,473.763431,883.086742,48.502275,-196.801361,-131.838081,2.4494260902994967
746,247.543042,78.295109,-728.689365,-118.280812,643.222022,218.330476,126.04244,135.891841,2.4508503486532023
747,308.905639,198.294454,-463.659464,9.674945,298.357301,65.158677,123.88624,211.621764,2.452257192522651
748,262.268235,305.293799,-96.629564,524.630702,235.49258,-46.013121,188.730041,268.351687,2.4536189051358575
749,163.630832,271.293144,-92.599664,592.586458,389.62786,37.81508,312.573841,234.081609,2.4549085957389347
750,17.993428,159.292489,-385.569763,393.542215,341.763139,294.643281,252.417642,109.811532,2.4561007698144883
751,-90.643975,74.291834,-687.539863,289.497972,181.898418,473.471482,42.261442,-48.458546,2.4571718679401258
752,128.718622,290.291179,-246.509962,575.453729,324.033698,505.299684,-108.894757,-111.728623,2.458100761489039
753,346.081218,407.290524,17.519938,409.409485,318.168977,364.127885,-173.050957,-7.9987,2.4588691944686687
754,237.443815,148.289869,-367.450161,-93.634758,45.304256,119.956086,-247.207156,-93.268778,2.459462162124873
755,332.806411,205.289215,-397.420261,-154.679001,-175.560464,-90.215713,-177.363356,-64.538855,2.459868218473146
756,623.169008,621.28856,125.60964,265.276756,120.574815,-173.387511,-176.519555,153.191068,2.4600797066164435
757,990.531604,984.287905,406.63954,328.232513,238.710094,-207.55931,-75.675755,451.92099,2.4600929075287263
758,977.894201,722.28725,96.669441,252.188269,430.845374,-104.731109,72.168046,544.650913,2.459908104879874
759,837.256798,638.286595,37.699341,400.144026,398.980653,-103.902907,30.011846,429.380836,2.4595295654053424
760,522.619394,330.28594,-681.270758,-120.900217,262.115932,114.925294,-24.144353,209.110758,2.458965436236936
761,347.981991,372.285285,-697.240858,-492.94446,-85.748788,12.753495,-294.300552,-64.159319,2.458227562464552
762,19.344587,71.28463,-231.210957,25.011296,-119.613509,80.581696,-324.456752,-264.429397,2.4573312299498373
763,-5.292816,228.283975,48.818943,297.967053,53.52177,210.409898,-286.612951,-275.699474,2.456294840021625
764,-76.93022,348.28332,0.848844,37.92281,-100.34295,73.238099,-410.769151,-352.969551,2.4551395241138763
765,5.432377,437.282665,79.878744,364.878567,-521.207671,-112.9337,-209.92535,-139.239629,2.4538887076284657
766,349.794974,633.28201,444.908645,479.834323,-526.072392,40.894501,91.91845,223.490294,2.4525676332918587
767,654.15757,581.281355,320.938545,378.79008,-178.937112,219.722703,251.762251,444.220217,2.4512028550067084
768,554.520167,326.2807,-296.031554,479.745837,767.198167,284.550904,279.606051,356.950139,2.44982171366314
769,488.882763,282.280045,-238.001654,309.701594,708.333446,-93.620895,-5.550148,295.680062,2.4484518065631184
770,345.24536,26.279391,-572.971753,18.65735,165.468726,-293.792694,-234.706348,276.409984,2.4471204620245812
771,158.607956,-74.721264,-719.941853,-66.386893,90.604005,-184.964492,-425.862547,22.139907,2.445854230376416
772,148.970553,-38.721919,-457.911952,361.568864,360.739284,186.863709,-327.018747,-9.13017,2.444678401943702
773,-63.66685,-136.722574,-629.882052,-28.475379,217.874564,292.69191,-261.174946,-93.400248,2.4436165617737773
774,-144.304254,116.276771,-458.852151,-226.519623,339.009843,451.520112,-151.331146,-212.670325,2.442690189792015
775,7.058343,448.276116,12.177749,109.436134,414.145122,341.348313,-35.487345,-154.940402,2.4419183138309193
776,78.420939,474.275461,231.20765,539.391891,312.280402,81.176514,-84.643544,-62.21048,2.441317221580656
777,349.783536,454.274806,147.23755,434.347648,-3.584319,-203.995285,-128.799744,179.519443,2.440900236000078
778,758.146132,599.274151,9.267451,243.303404,-105.44904,-89.167083,169.044057,550.249366,2.4406775571437445
779,791.508729,553.273496,-333.702649,376.259161,284.68624,200.661118,466.887857,651.979288,2.440656171742727
780,427.871326,432.272841,-397.672748,314.214918,339.821519,218.489319,205.731658,244.709211,2.4408398302658827
781,251.233922,362.272186,-246.642848,162.170675,474.956798,515.31752,-37.424542,6.439133,2.4412290896234055
782,120.596519,-198.728469,-562.612947,66.126432,159.092077,360.145722,-269.580741,-60.830944,2.441821418193991
783,1.959115,-493.729124,-695.583047,-368.917812,-155.772643,79.973923,-304.736941,-86.101021,2.44261135849621
784,-134.678288,-551.729779,-1402.553146,-321.962055,87.362636,133.802124,-154.89314,-80.371099,2.443590741615494
785,-278.315692,-407.730433,-1461.523246,-519.006298,-283.502085,-19.369675,-186.04934,-157.641176,2.444748946467866
786,143.046905,485.268912,-404.493345,-55.050541,-624.366805,-248.541473,-303.205539,-17.911253,2.4460731961525477
787,572.409502,1042.268257,511.536555,298.905215,-717.231526,-489.713272,-273.361739,220.818669,2.4475488830343846
788,848.772098,927.267602,83.566456,57.860972,-640.096247,-595.885071,-77.517938,449.548592,2.449159913814317
789,1033.134695,1087.266947,436.596356,250.816729,-753.960967,-647.056869,-142.674137,508.278514,2.450889065696227
790,690.497291,826.266292,402.626257,184.772486,-935.825688,-451.228668,-318.830337,208.008437,2.4527183448395355
791,46.859888,225.265637,-471.343843,-432.271758,-319.690409,15.599533,-372.986536,-198.26164,2.454629338590885
792,-134.777516,36.264982,-838.313942,-649.316001,445.444871,475.427734,-266.142736,-262.531718,2.456603553501309
793,-178.414919,55.264327,-506.284042,-118.360244,308.58015,589.255936,-179.298935,-251.801795,2.458622731838294
794,-180.052322,170.263672,69.745859,518.595513,150.715429,465.084137,-160.455135,-194.071872,2.460669140171354
795,-175.689726,342.263017,634.775759,869.551269,276.850709,281.912338,-68.611334,-154.34195,2.462725824617285
796,-183.327129,326.262362,584.80566,838.507026,322.985988,336.740539,167.232466,-11.612027,2.464776828446094
797,165.035467,727.261707,644.83556,556.462783,-241.878733,-17.431259,85.076267,176.117896,2.466807368937407
798,576.398064,1143.261052,1085.865461,304.41854,-540.743453,-383.603058,-7.079933,333.847818,2.468803971605405
799,692.76066,993.260397,559.895361,349.374296,12.391826,-135.774857,2.763868,327.577741,2.470754561143154
800,490.123257,454.259743,-231.074738,268.330053,623.527105,362.053345,11.607668,193.307663,2.4726485096404933
801,427.485854,400.259088,37.955162,110.28581,132.662385,305.881546,-93.548531,85.037586,2.474476643770954
802,450.84845,361.258433,34.985063,125.241567,-297.202336,171.709747,-275.704731,27.767509,2.4762312136927016
803,279.211047,243.257778,-179.985037,-11.802677,-538.067057,-83.462052,-402.86093,-155.502569,2.4779058273397054
804,-85.426357,18.257123,-562.955136,-261.84692,-355.931777,-84.63385,-480.017129,-431.772646,2.479495354569862
805,47.93624,-64.743532,-694.925236,-356.891163,-8.796498,6.194351,-296.173329,-153.042723,2.480995806268885
806,320.298836,239.255813,-375.895335,-225.935406,283.338781,46.022552,-208.329528,89.687199,2.4824041939698853
807,244.661433,251.255158,-216.865435,-141.97965,-74.525939,-134.149247,-189.485728,19.417122,2.4837183758313492
808,407.02403,240.254503,-55.835534,349.976107,36.60934,-58.321045,84.358073,251.147044,2.4849368949187896
809,625.386626,451.253848,318.194366,536.931864,-105.255381,61.507156,248.201873,477.876967,2.4860588156611407
810,169.749223,207.253193,127.224267,447.887621,-23.120101,449.335357,84.045674,142.60689,2.4870835641104447
811,-24.888181,400.252538,244.254167,230.843378,95.015178,421.163558,-313.110526,-205.663188,2.488010777235767
812,-274.525584,-122.748117,-741.715932,-32.200866,106.150457,490.99176,-335.266725,-270.933265,2.4888401659469475
813,-277.162987,-298.748772,-1020.686032,-318.245109,5.285737,353.819961,-251.422925,-210.203342,2.4895713958916756
814,78.199609,59.250573,-352.656131,39.710648,181.421016,234.648162,-245.579124,-43.47342,2.490203989324233
815,402.562206,629.249919,216.373769,309.666405,109.556295,198.476364,-156.735324,27.256503,2.4907372505317773
816,515.924802,753.249264,259.40367,137.622161,-176.308425,-130.695435,-276.891523,8.986426,2.4911702164513008
817,357.287399,384.248609,-263.56643,-232.422082,-550.173146,-312.867234,-263.047723,68.716348,2.4915016332446243
818,534.649995,597.247954,-150.536529,-273.466325,-967.037867,-369.039033,-178.203922,275.446271,2.4917299587467223
819,588.012592,629.247299,20.493371,-120.510568,-465.902587,-166.210831,-107.360121,332.176193,2.49185338988966
820,478.375189,728.246644,306.523272,277.445188,96.232692,-211.38263,-247.516321,91.906116,2.4918699134535993
821,190.737785,498.245989,36.553172,140.400945,227.367971,-149.554429,-447.67252,-207.363961,2.491777377827985
822,183.100382,377.245334,-127.416927,73.356702,287.50325,-79.726228,-505.82872,-113.634039,2.4915735828968906
823,190.462978,357.244679,-190.387027,27.312459,365.63853,115.101974,-322.984919,60.095884,2.4912563847055478
824,226.825575,366.244024,-355.357126,-233.731785,259.773809,180.930175,-211.141119,79.825807,2.490823811229083
825,353.188171,395.243369,-334.327226,-490.776028,72.909088,201.758376,-55.297318,243.555729,2.4902741853538846
826,291.550768,466.242714,-13.297325,-473.820271,-128.955632,17.586577,-84.453518,203.285652,2.489606251096951
827,450.913365,289.242059,-767.267425,-65.864514,-65.820353,61.414779,78.390283,463.015574,2.4888192991249083
828,534.275961,363.241404,-561.237524,-63.908758,-362.685074,-176.75702,160.234083,545.745497,2.4879132877842385
829,647.638558,712.240749,-73.207624,156.046999,-512.549794,-227.928819,47.077884,515.47542,2.4868889561062133
830,543.001154,895.240095,910.822277,926.002756,-413.414515,-214.100617,-229.078316,265.205342,2.4857479255899664
831,250.363751,531.23944,668.852177,651.958513,-267.279236,57.727584,-304.234515,35.935265,2.4844927879785637
832,168.726347,456.238785,332.882078,352.914269,158.856044,348.555785,-252.390714,8.665188,2.483127176707886
833,303.088944,622.23813,456.911978,621.870026,1009.991323,729.383986,-8.546914,164.39511,2.4816558202077905
834,218.451541,496.237475,184.941879,503.825783,662.126602,523.212188,-39.703113,138.125033,2.4800845757505616
835,256.814137,619.23682,183.971779,433.78154,92.261882,146.040389,-111.859313,88.854956,2.4784204430549743
836,253.176734,477.236165,-57.99832,99.737297,-668.602839,-85.13141,-123.015512,227.584878,2.4766715573486446
837,416.53933,579.23551,59.03158,138.693053,-1179.46756,-419.303209,-150.171712,329.314801,2.4748471620519483
838,569.901927,622.234855,-98.938519,145.64881,-1388.33228,-586.475007,-76.327911,399.044723,2.472957561661348
839,443.264523,448.2342,-353.908619,-129.395433,-722.197001,-240.646806,-59.484111,299.774646,2.471014055769111
840,300.62712,216.233545,-429.878718,-164.439676,252.938278,288.181395,-25.64031,278.504569,2.4690288554539443
841,127.989717,176.23289,-246.848818,-119.48392,997.073558,546.009597,-103.79651,123.234491,2.467014983510072
842,-129.647687,18.232235,-254.818917,-400.528163,756.208837,503.837798,-173.952709,-6.035586,2.4649861601511454
843,-88.28509,282.23158,232.210983,233.427594,732.344116,569.665999,-98.108909,45.694337,2.4629566759336363
844,-66.922494,644.230925,634.240884,812.383351,757.479396,465.4942,-27.265108,157.424259,2.4609412536981154
845,-153.559897,950.230271,852.270784,925.339107,941.614675,755.322402,402.578692,229.154182,2.4589549013344794
846,-253.197301,849.229616,615.300685,495.294864,964.749954,1006.150603,575.422493,191.884104,2.4570127571489135
847,-74.834704,877.228961,772.330585,608.250621,760.885234,654.978804,315.266294,117.614027,2.45512992955761
848,623.527893,1168.228306,980.360486,420.206378,373.020513,138.807005,205.110094,378.34395,2.4533213327668624
849,959.890489,857.227651,240.390386,202.162134,78.155792,-1.364793,32.953895,601.073872,2.451601520032771
850,922.253086,636.226996,-27.579713,-248.882109,-712.708928,-190.536592,-390.202305,546.803795,2.449984516037051
851,585.615682,555.226341,-19.549813,-224.926352,-936.573649,-223.708391,-695.358504,185.533718,2.448483649877588
852,222.978279,367.225686,-178.519912,-183.970595,-363.43837,17.11981,-657.514704,-94.73636,2.4471113901606114
853,252.340875,425.225031,-29.490012,357.985161,491.69691,368.948012,-243.670903,138.993563,2.4458791837003018
854,463.703472,728.224376,339.539889,714.940918,718.832189,604.776213,52.172897,367.723486,2.4447972993831226
855,494.066069,599.223721,158.569789,515.896675,517.967468,501.604414,250.016698,545.453408,2.4438746788368464
856,96.428665,283.223066,-104.40031,24.852432,131.102748,219.432616,176.860498,311.183331,2.4431187956539846
857,-94.208738,240.222411,10.62959,30.808188,0.238027,-262.739183,-184.295701,101.913253,2.4425355250489496
858,141.153858,324.221756,-362.340509,-541.236055,-240.626694,-468.910982,-126.451901,326.643176,2.442129025967914
859,350.516455,352.221101,-758.310609,-1096.280298,-939.491414,-548.082781,-196.6081,417.373099,2.441901637808073
860,498.879051,663.220447,9.719292,-935.324541,-1465.356135,-731.254579,-571.764299,222.103021,2.441853794025116
861,459.241648,755.219792,433.749192,-52.368785,-879.220856,-307.426378,-624.920499,40.832944,2.441983954999557
862,328.604245,318.219137,-451.220907,-154.413028,-304.085576,-12.598177,-514.076698,95.562867,2.442288562579095
863,217.966841,15.218482,-649.191007,-489.457271,-307.950297,-71.769976,-470.232898,139.292789,2.442762018700693
864,-24.670562,-229.782173,-718.161106,-673.501514,-93.815018,-68.941774,-481.389097,17.022712,2.4433966904091373
865,-102.307966,69.217172,-213.131206,-375.545757,539.320261,38.886427,-440.545297,-102.247366,2.444182943416984
866,-20.945369,571.216517,383.898695,-387.590001,-4.544459,-234.285372,-444.701496,-138.517443,2.4451092060852613
867,454.417227,1205.215862,958.928595,-413.634244,-624.40918,-511.457171,-532.857696,123.21248,2.4461620653394998
868,819.779824,922.215207,-169.041504,-369.678487,-368.273901,-189.628969,-156.013895,657.942402,2.4473263955698705
869,752.142421,494.214552,-904.011604,-310.72273,-245.138621,-184.800768,78.829905,833.672325,2.448585520999697
870,507.505017,373.213897,-801.981703,-349.766974,-338.003342,-96.972567,29.673706,610.402248,2.4499214113501693
871,369.867614,492.213242,-83.951803,-187.811217,301.131937,560.855635,-33.482494,384.13217,2.4513149098918006
872,461.23021,764.212587,507.078098,209.14454,1094.267217,944.683836,35.361307,386.862093,2.4527459921703647
873,390.592807,700.211932,410.107998,-115.899703,1014.402496,616.512037,-63.794893,282.592016,2.454194052846059
874,147.955403,497.211277,509.137899,179.056053,700.537775,331.340238,-158.951092,134.321938,2.4556382172123583
875,-12.682,312.210623,38.167799,172.01181,225.673055,82.16844,-287.107291,18.051861,2.45705767309117
876,123.680597,603.209968,293.1977,-9.032433,-297.191666,-185.003359,-411.263491,78.781783,2.458432017961474
877,314.043193,727.209313,394.2276,-189.076676,-269.056387,-166.175158,-289.41969,300.511706,2.459741615398964
878,519.40579,677.208658,167.257501,-346.12092,-221.921107,-284.346957,-102.57589,523.241629,2.4609679542138014
879,745.768386,777.208003,224.287401,-233.165163,133.214172,-157.518755,-36.732089,625.971551,2.4620940031012424
880,728.130983,826.207348,310.317302,-111.209406,8.349451,-52.690554,-136.888289,516.701474,2.4631045531927365
881,519.493579,735.206693,264.347202,43.746351,119.484731,172.137647,-197.044488,309.431397,2.4639865406373227
882,429.856176,724.206038,205.377103,-105.297893,-72.37999,407.965849,-185.200688,185.161319,2.4647293412753237
883,384.218773,582.205383,-140.592997,-449.342136,-493.244711,213.79405,-305.356887,126.891242,2.465325029604113
884,237.581369,376.204728,-483.563096,-772.386379,-723.109431,-208.377749,-588.513087,22.621164,2.465768594589252
885,322.943966,510.204073,-223.533196,-772.430622,-443.974152,-423.549548,-570.669286,109.351087,2.4660581054476767
886,386.306562,590.203418,323.496704,-318.474866,-138.838873,-293.721346,-420.825486,241.08101,2.4661948213202924
887,480.669159,564.202763,30.526605,-386.519109,-85.703593,-208.893145,-158.981685,414.810932,2.4661832397498076
888,632.031755,555.202108,-275.443495,-300.563352,79.431686,-155.064944,103.862115,593.540855,2.4660310800695977
889,625.394352,755.201453,142.586406,-64.607595,373.566965,120.763257,104.705916,548.270778,2.4657491991677483
890,262.756949,532.200799,-13.383694,-326.651839,267.702245,276.591459,-34.450283,272.0007,2.4653514385879216
891,-87.880455,201.200144,-268.353793,-511.696082,131.837524,391.41966,-197.606483,-40.269377,2.464854403530344
892,-291.517858,57.199489,-270.323893,-227.740325,3.972803,229.247861,-383.762682,-170.539454,2.464277175982299
893,-707.155262,-396.801166,-1109.293992,-802.784568,-115.891917,193.076062,-383.918882,-250.809532,2.4636409658945633
894,-953.792665,-675.801821,-1575.264092,-1385.828811,-347.756638,132.904264,-375.075081,-398.079609,2.4629687059821457
895,-541.430069,-258.802476,-557.234191,-895.873055,-389.621359,-4.267535,-275.231281,-140.349687,2.4622845973171867
896,530.932528,868.196869,623.795709,183.082702,-153.486079,43.560666,24.61252,485.380236,2.461613614351956
897,738.295125,744.196214,399.82561,174.038459,116.6492,320.388868,408.45632,780.110159,2.4609809793149156
898,950.657721,1193.195559,1025.85551,529.994216,282.784479,302.217069,384.300121,752.840081,2.460411617020555
899,1125.020318,1578.194904,1205.885411,638.949972,225.919759,161.04527,212.143921,698.570004,2.459929601986192
900,770.382914,939.194249,348.915311,19.905729,142.055038,10.873471,-118.012278,452.299927,2.4595576103240733
901,658.745511,843.193594,517.945212,-85.138514,-45.809683,-123.298327,-536.168478,197.029849,2.4593163891497634
902,473.108108,411.192939,-220.024888,-494.182757,-60.674403,-15.470126,-656.324677,127.759772,2.4592242562007467
903,363.470704,327.192284,-322.994987,-941.227001,-441.539124,-321.641925,-766.480876,78.489694,2.459296641983784
904,315.833301,551.191629,36.034913,-749.271244,-836.403845,-540.813724,-786.637076,7.219617,2.4595456860662526
905,374.195897,610.190975,53.064814,-79.315487,-923.268565,-533.985522,-592.793275,136.94954,2.4599798981054546
906,448.558494,703.19032,114.094714,-112.35973,-812.133286,-502.157321,-490.949475,240.679462,2.4606038928898495
907,490.92109,667.189665,113.124615,-164.403974,-401.998007,-358.32912,-284.105674,403.409385,2.4614182070754294
908,685.283687,909.18901,476.154515,-218.448217,-388.862728,-449.500919,-153.261874,606.139308,2.462419203475461
909,580.646284,636.188355,-145.815584,7.50754,180.272552,-37.672717,6.581927,561.86923,2.463599066746376
910,564.00888,899.1877,591.214316,523.463297,445.407831,337.155484,-12.574273,470.599153,2.464945892156928
911,437.371477,941.187045,974.244217,501.419053,235.54311,594.983685,68.269528,411.329076,2.466443866887076
912,251.734073,655.18639,566.274117,927.37481,673.67839,1011.811887,308.113328,386.058998,2.4680735410360537
913,52.09667,501.185735,481.304018,933.330567,490.813669,802.640088,254.957129,225.788921,2.469812183286308
914,-375.540734,-12.81492,-231.666082,229.286324,8.948948,276.468289,-234.199071,-179.481157,2.4716342140319494
915,-193.178137,-85.815575,-632.636181,-156.75792,-63.915772,47.29649,-360.35527,25.248766,2.4735117067960317
916,-90.81554,-148.81623,-839.606281,-134.802163,515.219507,-63.875308,-292.51147,149.978689,2.475414946985827
917,77.547056,152.183115,-464.57638,-24.846406,525.354786,-176.047107,-157.667669,256.708611,2.4773130355197988
918,281.909653,469.18246,148.45352,5.109351,176.490066,32.781094,117.176132,487.438534,2.4791745236480414
919,360.272249,529.181805,137.483421,-434.934892,-639.374655,-88.390705,33.019932,584.168457,2.4809680644153485
920,359.634846,670.181151,44.513321,-319.979136,-799.239376,-237.562503,-339.136267,276.898379,2.482663065709562
921,168.997442,400.180496,-122.456778,-391.023379,-470.104096,-231.734302,-756.292467,-82.371698,2.4842303297141406
922,366.360039,606.179841,59.573122,-490.067622,-592.968817,-369.906101,-956.448666,-20.641776,2.4856426638491245
923,456.722636,726.179186,242.603023,-450.111865,-569.833538,-639.077899,-963.604866,13.088147,2.4868754489341622
924,289.085232,540.178531,120.632923,-465.156109,-764.698258,-501.249698,-728.761065,7.81807,2.4879071513255537
925,141.447829,317.177876,-203.337176,-721.200352,-902.562979,-249.421497,-553.917265,24.547992,2.4887197671405055
926,226.810425,326.177221,-429.307276,-699.244595,-536.4277,-102.593296,-350.073464,168.277915,2.48929918835054
927,274.173022,307.176566,-524.277375,-848.288838,79.70758,-163.765094,-231.229664,299.007838,2.4896354824580675
928,396.535618,439.175911,6.752525,-661.333082,82.842859,-340.936893,-118.385863,443.73776,2.4897230796138516
929,426.898215,608.175256,327.782426,-489.377325,-137.021862,-244.108692,-140.542063,409.467683,2.489560863330925
930,290.260812,595.174601,246.812326,-150.421568,-181.886582,-83.280491,-375.698262,178.197606,2.4891521633403713
931,90.623408,471.173946,139.842227,-28.465811,-87.751303,197.547711,-570.854462,-47.072472,2.488504651551786
932,55.986005,507.173291,363.872127,588.489945,189.383976,219.375912,-560.010661,-95.342549,2.4876301444610047
933,39.348601,607.172636,668.902028,302.445702,176.519256,134.204113,-451.16686,-35.612627,2.486544317625953
934,27.711198,706.171981,968.931928,564.401459,644.654535,367.032314,-99.32306,86.117296,2.485266339947462
935,-193.926206,407.171327,520.961829,949.357216,1261.789814,785.860516,398.520741,303.847219,2.483818437389537
936,-567.563609,401.170672,379.991729,709.312972,732.925094,525.688717,282.364541,85.577141,2.4822253974032638
937,-635.201012,189.170017,-425.97837,293.268729,108.060373,258.516918,91.208342,-14.692936,2.480514026638407
938,-356.838416,272.169362,-357.94847,5.224486,-405.804348,-100.65488,-84.947858,-17.963013,2.4787125755039607
939,292.524181,376.168707,-241.918569,-151.819757,-584.669068,-124.826679,-161.104057,331.766909,2.476850143750435
940,713.886777,229.168052,-406.888669,-526.864001,-672.533789,-217.998478,-314.260257,625.496832,2.4749560814798093
941,508.249374,243.167397,-90.858768,-451.908244,-191.39851,-260.170277,-596.416456,288.226754,2.4730593998418997
942,232.61197,152.166742,-307.828868,-216.952487,0.73677,35.657925,-640.572656,75.956677,2.471188205156961
943,15.974567,15.166087,-315.798967,-177.99673,-345.127951,-257.513874,-682.728855,-48.3134,2.46936916933253
944,88.337164,131.165432,-128.769067,-463.040974,-803.992672,-717.685673,-814.885055,-44.583478,2.4676270482463645
945,263.69976,265.164777,-119.739166,-573.085217,-694.857392,-553.857472,-630.041254,188.146445,2.4659842582841223
946,556.062357,663.164122,-16.709266,-431.12946,-207.722113,-216.02927,-236.197453,526.876368,2.464460519494789
947,881.424953,1309.163467,524.320635,-23.173703,142.413166,-160.201069,-77.353653,702.60629,2.4630725719096844
948,919.78755,1237.162812,452.350535,-224.217946,246.548446,-193.372868,14.490148,726.336213,2.46183396951766
949,716.150146,1306.162157,1205.380436,133.73781,221.683725,-73.544667,-107.666052,527.066136,2.460754954258428
950,337.512743,705.161503,272.410336,303.693567,406.819004,215.283535,-43.822251,357.796058,2.459842410247776
951,82.87534,489.160848,5.440237,-52.350676,189.954283,286.111736,-230.978451,127.525981,2.459099896342121
952,116.237936,536.160193,73.470137,-58.394919,32.089563,189.939937,-316.13465,99.255903,2.458527753142841
953,86.600533,359.159538,-171.499962,-342.439163,-208.775158,-16.231861,-385.29085,111.985826,2.45812327868663
954,77.963129,331.158883,-182.470062,-415.483406,-170.639879,-109.40366,-336.447049,100.715749,2.4578809654155354
955,64.325726,249.158228,-172.440161,-575.527649,-26.504599,-40.575459,-131.603249,292.445671,2.4577927896115663
956,-73.311678,162.157573,-147.410261,-463.571892,50.63068,92.252742,90.240552,418.175594,2.4578485433506945
957,38.050919,249.156918,-218.38036,296.383864,528.765959,491.080944,466.084352,650.905517,2.458036198206221
958,347.413516,466.156263,85.64954,767.339621,740.901239,748.909145,818.928153,867.635439,2.4583422894294413
959,654.776112,828.155608,1038.679441,950.295378,519.036518,680.737346,624.771953,796.365362,2.4587523091646393
960,515.138709,826.154953,982.709341,601.251135,-35.828203,151.565547,-55.384246,376.095284,2.4592510974146733
961,71.501305,545.154298,406.739242,22.206891,-469.692923,-271.606251,-619.540445,-49.174793,2.459823219952507
962,-468.136098,44.153643,-123.230858,-1013.837352,-1530.557644,-908.77805,-1094.696645,-348.44487,2.460453323153879
963,-501.773502,-34.847012,-626.200957,-895.881595,-1809.422365,-979.949849,-1047.852844,-314.714948,2.4611264567796387
964,-243.410905,324.152333,-203.171057,-757.925838,-1810.287085,-879.121647,-865.009044,-213.985025,2.461828357028491
965,85.951692,600.151679,362.858844,-436.970082,-1067.151806,-572.293446,-553.165243,-34.255102,2.4625456836711277
966,473.314288,903.151024,596.888744,-314.014325,-35.016527,-274.465245,-283.321443,321.47482,2.4632662067189566
967,528.676885,772.150369,365.918645,-244.058568,-96.881247,-394.637044,-160.477642,463.204743,2.463978939825006
968,524.039481,673.149714,-17.051455,-286.102811,-67.745968,-350.808842,22.366158,532.934666,2.4646742194089
969,639.402078,890.149059,334.978446,-52.147055,24.389311,-279.980641,-111.790041,536.664588,2.465343730288688
970,500.764674,854.148404,456.008346,-137.191298,-144.475409,-232.15244,-305.946241,352.394511,2.4659804803368277
971,254.127271,830.147749,487.038247,-604.235541,-297.34013,117.675761,-512.10244,40.124433,2.4665787283045444
972,87.489868,558.147094,261.068147,-302.279784,-349.204851,261.503963,-451.25864,-16.145644,2.4671338704302532
973,113.852464,368.146439,-285.901952,-465.324027,-920.069571,63.332164,-451.414839,82.584279,2.46764229272045
974,-12.784939,298.145784,-313.872052,-999.368271,-1304.934292,-222.839635,-532.571038,20.314201,2.4681011968279183
975,-6.422343,482.145129,93.157849,-651.412514,-413.799013,-87.011434,-407.727238,71.044124,2.4685084082216555
976,49.940254,577.144474,225.187749,-84.456757,853.336267,199.816768,-41.883437,263.774047,2.4688621758226006
977,-35.69715,644.143819,503.21765,532.499,1217.471546,584.644969,393.960363,428.503969,2.469160972454373
978,245.665447,1012.143164,1059.24755,1199.454756,1239.606825,656.47317,585.804164,723.233892,2.4694033053231483
979,477.028044,1103.142509,985.277451,948.410513,923.742105,550.301372,481.647964,796.963814,2.469587545298788
980,37.39064,508.141855,372.307351,117.36627,313.877384,347.129573,39.491765,341.693737,2.469711783032843
981,-208.246763,323.1412,132.337252,-301.677973,-181.987337,128.957774,-429.664435,-66.57634,2.46977371893931
982,-383.884167,-45.859455,-180.632848,65.277783,-126.852057,334.785975,-428.820634,-123.846418,2.4697705928105567
983,-440.52157,-22.86011,-205.602947,-195.76646,-571.716778,97.614177,-518.976834,-96.116495,2.4696991573807807
984,-197.158974,269.139235,-14.573047,-362.810703,-983.581499,-367.557622,-612.133033,16.613428,2.469555698526442
985,3.203623,210.13858,-296.543146,-629.854946,-744.446219,-483.729421,-536.289233,171.34335,2.4693361030566234
986,214.56622,358.137925,-301.513246,-600.89919,65.68906,-400.90122,-396.445432,349.073273,2.4690359732495004
987,477.928816,508.13727,-107.483345,-637.943433,-197.175661,-443.073018,-329.601632,517.803196,2.4686507854900896
988,617.291413,605.136615,149.546555,-579.987676,-656.040381,-627.244817,-309.757831,599.533118,2.468176088616269
989,499.654009,458.13596,-190.423544,-368.031919,-489.905102,-510.416616,-267.91403,516.263041,2.4676077359412156
990,421.016606,681.135305,148.606356,-531.076163,-488.769823,-441.588415,-424.07023,313.992963,2.4669421434449856
991,254.379203,660.13465,262.636257,-631.120406,-0.634543,53.239787,-435.226429,189.722886,2.4661765653660916
992,114.741799,369.133995,-567.333843,-525.164649,270.500736,366.067988,-349.382629,188.452809,2.465309377420197
993,116.104396,547.13334,-164.303942,-615.208892,-290.363985,-76.103811,-506.538828,99.182731,2.4643403571650264
994,59.466992,439.132685,160.725958,-200.253136,-307.228706,-122.275609,-461.695028,112.912654,2.4632709506475963
995,141.829589,588.132031,491.755859,143.702621,-103.093426,6.552592,-333.851227,190.642577,2.4621045144317906
996,171.192185,678.131376,399.785759,-98.341622,-376.958147,-79.619207,-298.007427,243.372499,2.4608465224209235
997,122.554782,581.130721,259.81566,92.614135,-271.822868,-84.791006,-192.163626,277.102422,2.4595047275602218
998,251.917379,657.130066,279.84556,182.569891,-101.687588,18.037196,-35.319826,429.832344,2.45808926951626
999,344.279975,462.129411,59.875461,-66.474352,-266.552309,50.865397,-38.476025,588.562267,2.4566127207617834
1000,280.642572,86.128756,-201.094639,180.481405,-255.41703,202.693598,-26.632225,607.29219,2.455090065112061
1001,-47.994832,-534.871899,-894.064738,264.437162,476.71825,829.521799,183.211576,558.022112,2.45353860462044
1002,-306.632235,-641.872554,-562.034838,263.392919,541.853529,961.350001,127.055376,390.752035,2.4519777927949695
1003,-317.269639,-199.873209,8.995063,279.348675,4.988808,466.178202,-207.100823,201.481958,2.4504289942866184
1004,-210.907042,426.126136,204.024963,118.304432,-397.875912,-48.993597,-527.257022,-47.78812,2.4489151734589885
1005,-57.544445,932.125481,26.054864,-585.739811,-578.740633,-361.165395,-684.413222,-120.058197,2.4474605165120518
1006,382.818151,1400.124826,753.084764,-771.784054,-254.605354,-394.337194,-569.569421,198.671726,2.4460899940292373
1007,847.180748,1433.124171,915.114665,-191.828298,-399.470074,-519.508993,-381.725621,727.401648,2.444828872879366
1008,558.543344,996.123516,859.144565,94.127459,-608.334795,-441.680792,-106.88182,739.131571,2.4437021882662386
1009,288.905941,814.122861,586.174466,-105.916784,-677.199516,-287.85259,-114.03802,526.861493,2.442734188317628
1010,-146.731463,505.122207,322.204366,-245.961027,-886.064236,-106.024389,-319.194219,219.591416,2.4419477648871797
1011,-389.368866,385.121552,221.234267,-197.005271,-269.928957,344.803812,-292.350419,18.321339,2.4413638851610466
1012,-32.006269,629.120897,262.264167,-282.049514,-185.793678,375.632013,-209.506618,195.051261,2.4410010391796817
1013,296.356327,879.120242,302.294068,-499.093757,-620.658398,54.460215,-247.662818,363.781184,2.440874718479171
1014,377.718924,954.119587,203.323968,-614.138,-570.523119,-174.711584,-367.819017,344.511107,2.4409969407134184
1015,5.08152,462.118932,-204.646131,-917.182244,-242.38784,-24.883383,-233.975217,205.241029,2.4413758343392056
1016,-101.555883,590.118277,388.383769,-384.226487,-261.25256,8.944818,-233.131416,107.970952,2.4420152962445414
1017,246.806713,789.117622,609.41367,272.72927,83.882719,71.77302,43.712385,508.700874,2.4429147336037413
1018,-48.83069,160.116967,34.44357,454.685027,538.017998,186.601221,313.556185,590.430797,2.4440688992895465
1019,-454.468093,113.116312,173.473471,324.640783,632.153278,414.429422,215.399986,325.16072,2.4454678279140345
1020,-561.105497,129.115657,218.503371,141.59654,177.288557,254.257624,-232.756214,28.890642,2.447096877066776
1021,-501.7429,113.115002,-72.466728,-264.447703,-316.576164,117.085825,-546.912413,-83.379435,2.4489368756395984
1022,-81.380304,523.114347,178.563172,-520.491946,-747.440884,50.914026,-596.068613,22.350488,2.450964378347422
1023,540.982293,1044.113692,559.593072,-455.53619,-1044.305605,-359.257773,-773.224812,274.08041,2.4531520227529855
1024,195.344889,484.113037,-56.377027,-453.580433,-632.170326,-356.429571,-664.381012,226.810333,2.4554689823605074
1025,-54.292514,460.112383,41.652873,-456.624676,-159.035046,-261.60137,-562.537211,254.540256,2.457881506739037
1026,-357.929917,347.111728,-101.317226,-772.668919,-515.899767,-334.773169,-493.693411,228.270178,2.460353537246727
1027,-216.567321,588.111073,148.712674,-529.713163,-820.764488,-337.944968,-379.84961,301.000101,2.4628473848231014
1028,18.795276,740.110418,589.742575,-258.757406,-977.629208,-425.116766,-292.00581,434.730023,2.4653244545601365
1029,230.157872,711.109763,238.772475,-352.801649,-750.493929,-468.288565,-397.162009,435.459946,2.467746000407259
1030,242.520469,520.109108,-69.197624,-616.845892,-227.35865,-225.460364,-487.318209,330.189869,2.470073892451126
1031,141.883065,367.108453,-283.167724,-386.890135,-276.22337,47.367837,-574.474408,196.919791,2.472271378766371
1032,64.245662,522.107798,308.862177,-137.934379,-803.088091,-136.803961,-709.630607,109.649714,2.47430382387255
1033,63.608259,614.107143,420.892077,-122.978622,-1211.952812,-353.97576,-680.786807,145.379637,2.4761394063552578
1034,-37.029145,616.106488,313.921978,-660.022865,-1550.817532,-583.147559,-751.943006,88.109559,2.4777497592014988
1035,-93.666548,470.105833,-20.048122,-1047.067108,-927.682253,-414.319357,-708.099206,89.839482,2.4791105378327183
1036,-179.303952,194.105178,-311.018221,-675.111352,-146.546974,-106.491156,-466.255405,178.569404,2.480201902652039
1037,26.058645,426.104523,52.011679,26.844405,162.588305,-23.662955,-171.411605,413.299327,2.481008905102395
1038,39.421241,533.103868,228.04158,-53.199838,115.723585,-115.834754,22.432196,514.02925,2.4815217686962376
1039,-216.216162,338.103213,54.07148,-23.244081,479.858864,175.993448,80.275996,389.759172,2.481736059154252
1040,-313.853565,392.102559,319.101381,444.711675,912.994143,760.821649,193.119797,299.489095,2.481652740602951
1041,-418.490969,346.101904,273.131281,303.667432,447.129423,811.64985,89.963597,206.219018,2.481278117648442
1042,-646.128372,-34.898751,31.161182,13.623189,30.264702,582.478051,-76.192602,77.94894,2.4806236659844325
1043,-737.765776,-288.899406,-231.808918,-349.421054,-403.600019,17.306253,-497.348802,-134.321137,2.479705756926567
1044,-762.403179,-201.900061,-284.779017,-453.465298,-148.464739,-42.865546,-627.505001,-187.591214,2.478545283816277
1045,-240.040583,326.099284,-367.749117,-510.509541,-136.32946,-201.037345,-538.6612,198.138708,2.477167200535515
1046,92.322014,654.098629,-281.719216,-607.553784,-233.194181,-225.209143,-387.8174,425.868631,2.4755999843574767
1047,567.684611,1271.097974,817.310684,-175.598027,-27.058901,-64.380942,-162.973599,707.598553,2.4738750369762004
1048,734.047207,1410.097319,750.340585,-142.642271,-395.923622,-227.552741,-78.129799,793.328476,2.472026038769948
1049,550.409804,1205.096664,192.370485,-595.686514,-1013.788343,-176.72454,-160.285998,671.058399,2.470088272132672
1050,205.7724,1125.096009,661.400386,-606.730757,-1245.653063,-83.896338,-344.442198,324.788321,2.468097930041034
1051,-106.865003,880.095354,951.430286,-47.775,-608.517784,208.931863,-477.598397,28.518244,2.466091425911548
1052,-255.502407,417.094699,262.460187,67.180756,-71.382505,328.760064,-393.754597,-66.751833,2.464104720257023
1053,-310.13981,371.094044,165.490087,-315.863487,-193.247225,-289.411735,-739.910796,-161.021911,2.462172678700198
1054,-278.777213,331.093389,176.519988,-877.90773,-581.111946,-652.583533,-879.066996,-41.291988,2.460328474583492
1055,-361.414617,149.092735,94.549888,-1411.951973,-827.976667,-634.755332,-699.223195,34.437934,2.4586030477760823
1056,-92.05202,547.09208,554.579789,-282.996216,-34.841387,-297.927131,-473.379395,179.167857,2.457024629380434
