,CH1,CH2,CH3,CH4,CH5,CH6,CH7,CH8,Target
0,-149.264133,130.656581,-228.409102,-567.943924,-588.47139,-1538.082537,-811.427288,-55.527482,1.5273419368440362
1,382.264886,322.928533,-199.46678,-332.50647,-187.581439,-796.433931,-183.508006,477.99313,1.5730987912097694
2,572.793906,446.200486,-174.524458,-262.069016,-50.691488,-479.785324,128.411277,705.513743,1.6187511436161215
3,766.322926,318.472438,-370.582136,10.368439,879.198463,749.863282,1196.33056,1053.034356,1.6638800954286213
4,970.851946,320.74439,-351.639814,392.805893,1599.088414,1681.511889,1727.249843,1296.554969,1.7080735040289714
5,57.380966,-15.983658,-134.697492,129.243347,760.978365,522.160495,612.169126,764.075581,1.750933040581386
6,-165.090014,124.288294,-1.75517,-250.319199,-82.131683,-646.190898,-494.911591,455.596194,1.7920809585791078
7,-97.560995,359.560246,-29.812848,-551.881745,-681.241732,-1474.542291,-1234.992308,-184.883193,1.8311664367601024
8,32.968025,242.832198,-134.870526,-646.444291,-834.351781,-1722.893685,-1269.073025,-240.362581,1.8678713700192218
9,-402.502955,200.10415,62.071796,-649.006837,-1197.46183,-2414.245078,-1627.153742,-533.841968,1.9019154947506096
10,-38.973935,180.376102,-118.985883,-530.569382,-639.571879,-1540.596472,-786.234459,6.678645,1.9330607503034822
11,333.555085,274.648054,-143.043561,-327.131928,-205.681928,-813.947865,-96.315176,390.199258,1.961114795545223
12,796.084105,555.920006,21.898761,-12.694474,297.208023,-177.299258,434.604106,813.71987,1.9859336184707157
13,1556.613125,763.191958,-66.158917,263.74298,1065.097974,991.349348,1511.523389,1639.240483,2.0074231969144662
14,1682.142144,701.46391,-252.216595,258.180434,1404.987925,1640.997955,1943.442672,1882.761096,2.0255401892286606
15,881.671164,529.735862,27.725727,198.617888,791.877876,535.646561,586.361955,872.281708,2.040291654792381
16,145.200184,280.007814,154.668049,-83.944658,-160.232173,-708.704832,-564.718762,-21.197679,2.051733824924275
17,-542.270796,222.279766,149.610371,-415.507203,-760.342222,-1500.056226,-1329.799479,-538.677066,2.0599699647076153
18,-938.741776,95.551719,-188.447307,-778.069749,-1106.452271,-1964.407619,-1501.880196,-584.156453,2.0651473849542343
19,-1184.212756,67.823671,-10.504985,-651.632295,-1235.56232,-2558.759012,-1907.960913,-1043.635841,2.067453680620955
20,-193.683737,445.095623,-2.562663,-354.194841,-493.672369,-1531.110406,-950.04163,-344.115228,2.067112287084209
21,331.845283,398.367575,-250.620341,-419.757387,-251.782417,-823.461799,-212.122347,328.405385,2.0643774584656063
22,604.374303,280.639527,-377.678019,-434.319933,-99.892466,-413.813193,306.796935,839.925997,2.059528782434519
23,1268.903323,381.911479,-657.735698,-230.882479,751.997485,812.835414,1394.716218,1527.44661,2.052865353410353
24,1526.432343,664.183431,-406.793376,257.554976,1423.887436,1635.484021,1796.635501,1693.967223,2.0446997307328547
25,595.961363,458.455383,-342.851054,-72.00757,632.777387,465.132627,585.554784,725.487836,2.035351810119316
26,-137.509618,307.727335,-333.908732,-526.570116,-214.332662,-777.218766,-585.525933,-48.991552,2.025142735607788
27,-501.980598,34.999287,-222.96641,-543.132662,-662.442711,-1446.57016,-1203.60665,-483.470939,2.014388975287144
28,-523.451578,-8.728761,-255.024088,-626.695208,-724.55276,-1673.921553,-1173.687367,-533.950326,2.003396677592496
29,-654.922558,162.543191,-136.081766,-865.257754,-1257.662809,-2514.272947,-1646.768084,-745.429714,1.9924564160098326
30,-47.393538,355.815143,-53.139444,-452.8203,-811.772858,-1722.62434,-801.848801,-116.909101,1.9818384189493299
31,285.135482,389.087095,-49.197122,-229.382845,-240.882907,-868.975733,-137.929518,269.611512,1.971788368618075
32,502.664502,349.359047,-230.2548,-161.945391,44.007044,-366.327127,254.989764,504.132125,1.962523838289778
33,1209.193521,413.630999,-686.312478,-302.507937,642.896995,706.32148,1276.909047,1236.652737,1.9542314217967867
34,1655.722541,638.902951,-411.370156,218.929517,1321.786946,1613.970086,1812.82833,1677.17335,1.9470645927396788
35,1207.251561,866.174904,136.572166,290.366971,778.676897,668.618693,750.747613,1045.693963,1.9411423142096098
36,415.780581,713.446856,230.514488,-7.195575,-27.433152,-532.732701,-374.333104,180.214575,1.9365484031334588
37,-189.690399,282.718808,56.456809,-265.758121,-446.5432,-1150.084094,-980.413821,-349.264812,1.933331637055099
38,-406.161379,103.99076,-148.600869,-649.320666,-933.653249,-1627.435487,-1171.494538,-530.744199,1.931506575611321
39,-727.63236,7.262712,-281.658547,-1097.883212,-1719.763298,-2660.786881,-1775.575255,-802.223586,1.9310550544740956
40,-256.10334,19.534664,-330.716225,-691.445758,-882.873347,-1764.138274,-998.655972,-178.702974,1.9319282964038509
41,239.42568,230.806616,-186.773903,-247.008304,-287.983396,-849.489668,-197.736689,308.817639,1.9340495725433948
42,438.9547,291.078568,-162.831581,-24.57085,149.906555,-242.841061,259.182593,565.338252,1.937317337386994
43,1048.48372,277.35052,-445.889259,121.866604,997.796506,965.807546,1462.101876,1346.858864,1.941608753144388
44,1464.01274,443.622472,-464.946937,231.304058,1331.686457,1730.456152,1969.021159,1719.379477,1.9467835135961284
45,847.541759,545.894424,71.995385,433.741513,626.576408,605.104759,681.940442,915.90009,1.9526878740651104
46,98.070779,289.166376,-58.062293,-76.821033,-251.533641,-593.246635,-477.140275,110.420703,1.9591587928198628
47,-511.400201,57.438328,-144.119971,-517.383579,-704.64369,-1322.598028,-1169.220992,-443.058685,1.9660280900396665
48,-674.871181,3.71028,-96.177649,-484.946125,-781.753739,-1627.949422,-1244.301709,-563.538072,1.9731265333252515
49,-940.342161,-118.017768,-237.235327,-857.508671,-1375.863788,-2476.300815,-1713.382426,-863.017459,1.9802877635043348
50,-203.813141,60.254184,-317.293006,-626.071217,-806.973837,-1618.652208,-840.463143,-139.496847,1.9873519809927054
51,421.715879,238.526137,-281.350684,-388.633763,-245.083886,-782.003602,-94.54386,459.023766,1.9941693210295848
52,686.244898,416.798089,-51.408362,-33.196308,214.806065,-193.354995,346.375422,694.544379,2.0006028554832183
53,1308.773918,560.070041,-15.46604,439.241146,1137.696017,1025.293611,1486.294705,1402.064992,2.0065311693697154
54,1396.302938,483.341993,-364.523718,326.6786,1475.585968,1684.942218,1931.213988,1537.585604,2.011850471479872
55,590.831958,396.613945,-261.581396,10.116054,647.475919,532.590824,615.133271,528.106217,2.01647621029027
56,-42.639022,351.885897,-103.639074,-261.446492,-122.63413,-677.760569,-538.947446,-224.37317,2.0203441783684637
57,-88.110002,386.157849,33.303248,-340.009038,-420.744179,-1192.111962,-943.028163,-60.852558,2.023411100492773
58,-192.580983,402.429801,49.24557,-373.571584,-524.854228,-1438.463356,-1006.10888,-94.331945,2.025654712429337
59,-653.051963,331.701753,106.187892,-616.134129,-1241.964277,-2493.814749,-1675.189597,-686.811332,2.0270733484913315
60,-224.522943,264.973705,-253.869786,-520.696675,-744.074326,-1656.166143,-850.270314,-89.290719,2.027685066415842
61,212.006077,399.245657,-266.927464,-312.259221,-284.184375,-866.517536,-133.351031,368.229893,2.0275263475250704
62,421.535097,512.517609,-257.985142,-120.821767,174.705576,-306.868929,359.568251,574.750506,2.0266504184104353
63,1098.064117,776.789561,-324.04282,33.615687,859.595527,823.779677,1401.487534,1301.271119,2.025125247341766
64,1330.593137,782.061513,-293.100499,240.053141,1293.485478,1529.428284,1841.406817,1523.791731,2.02303127414339
65,686.122156,631.333465,-74.158177,146.490595,564.375429,400.07689,654.3261,683.312344,2.0204589363135597
66,-235.348824,387.605417,138.784145,10.92805,-65.73462,-640.274503,-379.754617,-88.167043,2.0175060566479934
67,-845.819804,252.87737,319.726467,-215.634496,-615.844669,-1361.625897,-976.835334,-420.64643,2.0142751585525787
68,-668.290784,241.149322,-127.331211,-614.197042,-981.954717,-1768.97729,-1077.916051,-363.125818,2.0108707746197134
69,-244.761764,553.421274,76.611111,-582.759588,-1231.064766,-2388.328683,-1455.996768,-482.605205,2.007396811956009
70,434.767256,623.693226,106.553433,-272.322134,-676.174815,-1488.680077,-556.077485,118.915408,2.003954034275948
71,441.296275,499.965178,-244.504245,-310.88468,-358.284864,-729.03147,83.841798,418.43602,2.0006377160349125
72,672.825295,589.23713,-240.561923,-151.447226,190.605087,-147.382864,482.76108,687.956633,1.997535518009393
73,1189.354315,647.509082,-411.619601,42.990229,852.495038,889.265743,1438.680363,1223.477246,1.994725626907274
74,1176.883335,475.781034,-581.677279,68.427683,1174.384989,1527.914349,1695.599646,1127.997859,1.9922751939894154
75,305.412355,243.052986,-504.734957,-244.134863,401.27494,354.562956,448.518929,220.518471,1.990239099501
76,-153.058625,271.324938,-371.792635,-605.697409,-473.835109,-898.788437,-722.561788,-192.960916,1.9886590611512458
77,-283.529606,370.59689,-143.850313,-581.259955,-919.945158,-1551.139831,-1279.642505,-324.440303,1.9875630961505717
78,-165.000586,400.868842,36.092008,-386.822501,-830.055207,-1656.491224,-1201.723222,-360.919691,1.9869653376216068
79,-329.471566,254.140794,-60.96567,-656.385047,-1160.165256,-2413.842618,-1614.803939,-534.399078,1.986866197745316
80,-107.942546,204.412746,-224.023348,-435.947592,-675.275305,-1607.194011,-849.884656,-58.878465,1.9872528619764658
81,181.586474,479.684698,-269.081026,-213.510138,-286.385354,-954.545404,-257.965373,316.642148,1.9881000912400901
82,455.115494,546.95665,-354.138704,-144.072684,91.504597,-393.896798,247.953909,508.16276,1.9893713023608879
83,1140.644514,735.228602,-441.196382,24.36477,869.394548,788.751809,1299.873192,1230.683373,1.9910198912175758
84,1718.173533,1101.500555,36.74594,605.802224,1398.2845,1557.400415,1822.792475,1638.203986,1.9929907583670834
85,1025.702553,780.772507,-161.311738,174.239678,668.174451,431.049022,599.711758,911.724598,1.9952219932359174
86,8.231573,569.044459,17.630584,-7.322868,-82.935598,-778.302372,-694.368959,-162.754789,1.9976466704868874
87,-573.239407,509.316411,-108.427094,-506.885413,-873.045647,-1608.653765,-1355.449676,-854.234176,2.000194710868847
88,-604.710387,361.588363,-133.484772,-418.447959,-880.155696,-1741.005158,-1230.530393,-783.713563,2.0027947587465493
89,-489.181367,389.860315,279.45755,-54.010505,-1095.265745,-2440.356552,-1597.61111,-717.192951,2.0053760295599385
90,308.347652,762.132267,379.399872,61.426949,-583.375794,-1500.707945,-564.691827,342.327662,2.007870082622714
91,334.876672,540.404219,-99.657807,-44.135597,-261.485843,-865.059339,-17.772544,458.848275,2.010212477858705
92,350.405692,220.676171,-956.715485,-771.698143,-384.595892,-685.410732,245.146738,507.368887,2.0123442791882633
93,1265.934712,601.948123,-867.773163,-380.260689,516.294059,535.237875,1379.066021,1360.8895,2.014213372192076
94,1768.463732,1020.220075,-431.830841,186.176766,1095.18401,1347.886481,1870.985304,1729.410113,2.0157755692561006
95,697.992752,585.492027,-305.888519,150.61422,470.073961,267.535088,596.904587,736.930726,2.016995481485044
96,22.521771,438.763979,-269.946197,-332.948326,-440.036088,-956.816306,-559.17613,-99.548662,2.0178471430999876
97,-506.949209,251.035931,-324.003875,-634.510872,-988.146137,-1682.167699,-1175.256847,-604.028049,2.0183143806402506
98,-596.420189,330.307883,-129.061553,-467.073418,-1041.256186,-1942.519093,-1231.337564,-624.507436,2.0183909259014476
99,-887.891169,260.579835,-186.119231,-805.635964,-1695.366234,-2816.870486,-1666.418281,-882.986824,2.018080277995348
100,-311.362149,524.851788,-62.176909,-563.19851,-1043.476283,-1942.221879,-908.498998,-291.466211,2.017395326054457
101,306.166871,478.12374,-346.234587,-281.761055,-387.586332,-950.573273,-59.579715,331.054402,2.0163577497784475
102,697.695891,564.395692,-525.292265,-320.323601,-104.696381,-458.924666,351.339567,749.575015,2.0149972200985573
103,1281.22491,771.667644,-439.349943,89.113853,694.19357,738.72394,1408.25885,1363.095627,2.0133504266057094
104,1610.75393,875.939596,-482.407621,228.551307,1141.083521,1501.372547,1877.178133,1685.61624,2.0114599619547473
105,594.28295,642.211548,-210.4653,95.988761,361.973472,285.021153,632.097416,758.136853,2.009373096149653
106,-423.18803,462.4835,72.477022,-197.573785,-473.136577,-963.33024,-590.983301,-157.342535,2.007140475385824
107,-725.65901,433.755452,-22.580656,-472.136331,-898.246626,-1629.681633,-1285.064018,-729.821922,2.0048147809530263
108,-83.12999,739.027404,170.361666,-491.698876,-1175.356675,-2056.033027,-1424.144735,-637.301309,2.0024493835891826
109,-219.600971,524.299356,141.303988,-594.261422,-1508.466724,-2765.38442,-1846.225452,-766.780696,2.000097027647676
110,-57.071951,412.571308,-219.75369,-561.823968,-865.576773,-1821.735814,-921.306169,-200.260084,1.9978085775496686
111,-109.542931,235.84326,-425.811368,-508.386514,-486.686822,-1135.087207,-389.386886,-409.739471,1.9956318563099331
112,342.986089,641.115212,-59.869046,-91.94906,-144.796871,-617.4386,72.532397,-515.218858,1.993610602540925
113,1521.515109,1263.387164,423.073276,618.488394,924.09308,796.210006,1425.451679,958.301754,1.9917835683628884
114,1516.044129,1018.659116,-82.984402,499.925848,1288.983031,1503.858613,1864.370962,1826.822367,1.990183776198692
115,430.573148,779.931068,59.95792,279.363303,458.872983,271.507219,518.290245,721.34298,1.9888379476417457
116,-9.897832,826.203021,-62.099758,-278.199243,-483.237066,-993.844174,-689.790472,-112.136407,1.98776611259072
117,-259.368812,527.474973,-237.157436,-999.761789,-1345.347115,-1901.195568,-1373.871189,-427.615795,1.9869814017852332
118,-296.839792,284.746925,-227.215115,-734.324335,-1253.457164,-2081.546961,-1304.951906,-129.095182,1.9864900208901681
119,-718.310772,324.018877,-78.272793,-664.886881,-1474.567213,-2708.898354,-1698.032623,-532.574569,1.9862913994956832
120,-271.781752,701.290829,-103.330471,-473.449427,-973.677262,-1973.249748,-1045.11334,-220.053957,1.9863785039495945
121,317.747268,632.562781,-429.388149,-579.011973,-678.787311,-1334.601141,-381.194057,367.466656,1.9867382989310727
122,386.276287,495.834733,-428.445827,-454.574518,-370.89736,-835.952535,45.725226,557.987269,1.9873523392072039
123,1117.805307,740.106685,-433.503505,-68.137064,584.992591,503.696072,1182.644508,1232.507882,1.9881974701674645
124,1781.334327,1026.378637,-244.561183,363.30039,1389.882542,1554.344678,1961.563791,1988.028494,1.989246613567119
125,1191.863347,1123.650589,214.381139,263.737844,701.772493,468.993285,810.483074,1287.549107,1.990469613470264
126,202.392367,942.922541,232.323461,-218.824702,-384.337556,-1049.358108,-636.597643,21.06972,1.9918341166868776
127,-328.078613,752.194493,259.265783,-389.387248,-954.447605,-1752.709502,-1266.67836,-476.409668,1.9933064620447656
128,-405.549594,406.466445,75.208105,-492.949794,-1207.557654,-2080.060895,-1250.759077,-471.889055,1.994852553605037
129,-631.020574,300.738397,202.150427,-586.512339,-1470.667703,-2731.412289,-1661.839794,-739.368442,1.996438694377344
130,-55.491554,504.010349,-255.907251,-784.074885,-769.777752,-1791.763682,-760.920511,-108.847829,1.9980323591590476
131,194.037466,625.282301,-149.964929,-386.637431,-383.8878,-1166.115075,-161.001228,230.672783,1.99960288773515
132,321.566486,608.554253,-212.022608,-304.199977,-91.997849,-578.466469,281.918055,421.193396,2.001122082743981
133,1434.095506,1039.826206,-253.080286,-55.762523,714.892102,616.182138,1378.837337,1383.714009,2.0025646999371496
134,1937.624525,1305.098158,-60.137964,349.674931,1312.782053,1421.830744,1897.75662,1828.234621,2.003908822233303
135,897.153545,955.37011,-79.195642,-33.887615,428.672004,200.479351,584.675903,861.755234,2.0051361127713543
136,-16.317435,577.642062,-58.25332,-344.45016,-418.438045,-1050.872043,-604.404814,-6.724153,2.006231945996268
137,-373.788415,628.914014,285.689002,-216.012706,-714.548094,-1720.223436,-1202.485531,-475.20354,2.007185419547586
138,-498.259395,556.185966,103.631324,-382.575252,-842.658143,-1904.574829,-1205.566248,-535.682928,2.0079892532611683
139,-746.730375,494.457918,-154.426354,-909.137798,-1551.768192,-2819.926223,-1689.646965,-905.162315,2.008639584839451
140,-177.201355,679.72987,70.515968,-383.700344,-821.878241,-1862.277616,-897.727682,-348.641702,2.009135674606892
141,389.327664,809.001822,-100.54171,-287.26289,-369.98829,-1011.62901,-154.808399,305.87891,2.0094795341701355
142,535.856684,759.273774,-353.599388,-427.825436,-247.098339,-657.980403,207.110884,636.399523,2.009675495686557
143,1257.385704,969.545726,-354.657066,-141.387981,630.791612,551.668203,1372.030166,1415.920136,2.009729739766258
144,1604.914724,1109.817678,-340.714744,130.049473,1238.681563,1422.31681,1874.949449,1699.440749,2.0096498007643744
145,914.443744,1156.08963,91.227577,78.486927,433.571514,244.965417,641.868732,799.961361,2.009444068353247
146,52.972764,779.361582,26.169899,-153.075619,-299.538534,-904.385977,-545.211985,0.481974,2.00912130380583
147,-447.498217,519.633534,-142.887779,-462.638165,-859.648583,-1687.73737,-1234.292702,-454.997413,2.0086901883976034
148,-415.969197,614.905486,40.054543,-492.200711,-1090.758632,-2023.088764,-1267.373419,-458.476801,2.0081589197852066
149,-688.440177,596.177439,249.996865,-461.763257,-1408.868681,-2729.440157,-1688.454136,-732.956188,2.0075348702013778
150,-375.911157,583.449391,34.939187,-315.325802,-824.97873,-1816.79155,-790.534853,-166.435575,2.006824317885627
151,-446.382137,340.721343,-204.118491,-309.888348,-436.088779,-1051.142944,-71.61557,210.085038,2.0060322604271033
152,120.146883,711.993295,-188.176169,-221.450894,-240.198828,-676.494337,273.303713,538.60565,2.0051623157169955
153,1524.675902,1396.265247,101.766153,292.98656,551.691123,476.154269,1308.222995,1349.126263,2.004216713084882
154,1954.204922,1377.537199,-40.291525,472.424014,1033.581074,1250.802876,1778.142278,1662.646876,2.003196374021807
155,659.733942,835.809151,-167.349203,-120.138532,220.471025,194.451482,610.061561,685.167488,2.002101078767901
156,-47.737038,741.081103,223.593119,-215.701078,-629.639024,-1034.899911,-668.019156,-107.311899,2.000929712056955
157,-170.208018,581.353055,69.535441,-511.263623,-994.749073,-1569.251304,-1080.099873,-232.791286,1.999680578552368
158,-85.678998,794.625007,398.477763,-286.826169,-1016.859122,-1810.602698,-987.18059,-196.270673,1.9983517760586893
159,-810.149978,287.896959,-128.579916,-806.388715,-1552.969171,-2659.954091,-1585.261307,-742.750061,1.9969416125211956
160,-95.620959,678.168911,5.362406,-462.951261,-964.07922,-1921.305485,-855.342024,-69.229448,1.9954490511921188
161,254.908061,786.440863,164.304728,48.486193,-364.189269,-1056.656878,-122.422741,326.291165,1.993874167192654
162,360.437081,619.712815,-89.75295,-192.076353,3.700683,-497.008271,390.496542,532.811777,1.9922185980670937
163,1129.966101,730.984767,-239.810628,-32.638899,624.590634,553.640335,1375.415824,1392.33239,1.990485970826901
164,1627.495121,958.256719,-293.868306,280.798556,1336.480585,1415.288942,1847.335107,1882.853003,1.988682288420618
165,828.024141,914.528672,215.074016,358.23601,554.370536,305.937548,641.25439,927.373616,1.9868162595276022
166,-34.44684,620.800624,72.016338,-285.326536,-445.739513,-903.413845,-488.826327,32.894228,1.9848995570324246
167,-405.91782,435.072576,-233.04134,-737.889082,-1109.849562,-1647.765239,-1117.907044,-393.585159,1.9829469924513805
168,-240.3888,673.344528,121.900982,-523.451628,-1169.959611,-1886.116632,-1161.987761,-310.064546,1.9809765958995402
169,-315.85978,921.61648,573.843304,-426.014174,-1491.06966,-2501.468025,-1451.068478,-461.543934,1.9790095938415981
170,238.66924,975.888432,335.785626,-267.57672,-878.179709,-1605.819419,-604.149195,189.976679,1.9770702797887687
171,500.19826,870.160384,29.727948,-172.139265,-413.289758,-898.170812,-43.229912,533.497292,1.9751857762062675
172,639.72728,916.432336,181.67027,166.298189,-80.399807,-461.522206,323.689371,605.017905,1.9733856890956896
173,1266.256299,1017.704288,-5.387409,297.735643,714.490144,708.126401,1386.608653,1286.538517,1.9717016599254946
174,1500.785319,1099.97624,-120.445087,333.173097,989.380095,1330.775007,1797.527936,1557.05913,1.9701668227121159
175,546.314339,942.248192,79.497235,152.610551,252.270046,220.423614,490.447219,523.579743,1.9688151770172648
176,-265.156641,695.520144,217.439557,112.048005,-401.840003,-867.927779,-670.633498,-532.899645,1.967680890341501
177,-802.627621,275.792096,-71.618121,-475.514541,-1152.950051,-1685.279173,-1354.714215,-936.379032,1.9667975457841658
178,-1009.098601,50.064048,-448.675799,-936.077086,-1456.0601,-2064.630566,-1287.794932,-545.858419,1.966197352837974
179,-856.569582,359.336,-382.733477,-1176.639632,-2059.170149,-2926.98196,-1795.875649,-624.337806,1.9659103407356187
180,-412.040562,560.607952,-440.791155,-958.202178,-1451.280198,-2112.333353,-1172.956366,-354.817194,1.9659635548201206
181,-126.511542,933.879904,-9.848833,-470.764724,-939.390247,-1278.684746,-538.037083,-339.296581,1.9663802769375252
182,-19.982522,732.151857,-301.906511,-359.32727,-563.500296,-755.03614,-53.1178,-209.775968,1.9671792908307328
183,753.546498,920.423809,-290.964189,93.110184,433.389655,596.612467,1127.801482,812.744644,1.9683742129416801
184,1708.075518,1004.695761,-310.021867,65.547638,699.279606,1269.261073,1786.720765,2056.265257,1.9699729079149537
185,977.604537,745.967713,-326.079545,-189.014907,194.169557,253.90968,600.640048,1213.78587,1.9719770064623596
186,109.133557,652.239665,-245.137224,-467.577453,-517.940492,-880.441714,-624.440669,218.306483,1.9743815411314853
187,-367.337423,518.511617,-19.194902,-440.139999,-1010.050541,-1531.793107,-1190.521386,-204.172905,1.9771747129708477
188,-451.808403,506.783569,-60.25258,-544.702545,-1049.16059,-1728.1445,-1192.602103,-299.652292,1.980337799159928
189,-661.279383,564.055521,-35.310258,-747.265091,-1566.270639,-2600.495894,-1706.68282,-602.131679,1.9838452084441265
190,-124.750363,809.327473,-6.367936,-595.827637,-1089.380688,-1866.847287,-991.763537,-189.611067,1.987664687760267
191,168.778657,902.599425,149.574386,-247.390183,-635.490737,-1071.198681,-304.844254,-324.090454,1.9917576798417203
192,465.307676,1032.871377,123.516708,52.047272,-29.600786,-415.550074,163.075029,-75.569841,1.9960798279415142
193,1007.836696,1135.143329,-53.54097,323.484726,799.289166,817.098532,1242.994311,1221.950772,2.000581620196954
194,1440.365716,1230.415281,-57.598648,481.92218,1244.179117,1599.747139,1759.913594,2092.471384,2.0052091626698534
195,1045.894736,1287.687233,552.343674,594.359634,491.069068,445.395746,574.832877,1383.991997,2.009905066819658
196,73.423756,747.959185,-35.714004,-396.202912,-543.040981,-858.955648,-686.24784,276.51261,2.0146094341852336
197,-676.047224,497.231137,-194.771682,-729.765458,-1133.15103,-1612.307041,-1361.328557,-292.966778,2.019260918440857
198,-993.518205,543.50309,218.17064,-224.328004,-835.261079,-1618.658435,-1194.409274,-257.446165,2.0237978428206023
199,-749.989185,908.775042,437.112962,-494.890549,-1470.371128,-2480.009828,-1642.489991,-452.925552,2.02815934923014
200,306.539835,1246.046994,443.055283,-446.453095,-1193.481177,-1804.361221,-913.570708,78.595061,2.032286554231853
201,703.068855,1037.318946,-254.002395,-516.015641,-511.591226,-919.712615,-173.651425,518.115673,2.036123686531136
202,1273.597875,1662.590898,719.939927,804.421813,698.298725,215.935992,685.267858,1213.636286,2.0396191806283435
203,1931.126895,1909.86285,789.882249,1189.859267,1545.188676,1443.584598,1892.18714,1980.156899,2.0427267019374127
204,2211.655914,2066.134802,726.824571,1236.296721,2083.078627,2267.233205,2340.106423,2213.677511,2.045406079899663
205,921.184934,1351.406754,224.766893,404.734175,903.968578,893.881811,833.025706,943.198124,2.047624127416315
206,-219.286046,615.678706,-384.290785,-685.82837,-741.141471,-958.469582,-797.055011,-207.281263,2.0493553272486333
207,-788.757026,193.950658,-558.348463,-1052.390916,-1553.25152,-1856.820975,-1557.135728,-611.76065,2.050582368840059
208,-873.228006,224.22261,-420.406141,-1128.953462,-1545.361569,-1992.172369,-1429.216445,-653.240038,2.0512965222379163
209,-921.698986,371.494562,-264.463819,-1219.516008,-2007.471617,-2765.523762,-1855.297162,-810.719425,2.051497839360356
210,-749.169966,-98.233486,-589.521497,-1148.078554,-1685.581666,-2202.875156,-1239.377879,-439.198812,2.051195176685168
211,-626.640947,-301.961534,-808.579175,-967.6411,-1014.691715,-1237.226549,-511.458596,-136.6782,2.0504060374418924
212,-247.111927,398.310418,-478.636853,-601.203646,-597.801764,-745.577942,-96.539313,29.842413,2.0491562354732404
213,518.417093,834.58237,-381.694532,67.233809,431.088187,553.070664,1032.37997,693.363026,2.0474793869993912
214,1086.946113,1067.854323,65.24779,620.671263,1017.978138,1325.719271,1484.299252,1117.883639,2.0454162404717375
215,728.475133,891.126275,-42.809888,157.108717,226.868089,373.367877,494.218535,829.404251,2.043013858445647
216,171.004153,702.398227,-186.867566,-554.453829,-677.24196,-668.983516,-447.862182,405.924864,2.040324668843422
217,-185.466828,631.670179,-135.925244,-644.016375,-1125.352009,-1394.33491,-1116.942899,-201.554523,2.0374054060340163
218,-128.937808,779.942131,164.017078,-466.578921,-1225.462058,-1635.686303,-1117.023616,-250.033911,2.034315964749036
219,-238.408788,822.214083,197.9594,-669.141466,-1658.572107,-2396.037696,-1579.104333,-479.513298,2.031118191919532
220,331.120232,997.486035,443.901722,-327.704012,-1238.682156,-1790.38909,-990.18505,-20.992685,2.027874643001902
221,340.649252,606.757987,-177.155956,-438.266558,-749.792205,-1030.740483,-431.265767,229.527928,2.024647330224343
222,153.178272,552.029939,-455.213634,-470.829104,-330.902254,-569.091877,-90.346484,393.04854,2.0214964904031594
223,966.707291,1034.301891,-429.271312,-60.39165,404.987697,466.55673,896.572799,1185.569153,2.0184793995421253
224,1431.236311,1063.573843,-631.32899,61.045804,896.877649,1375.205336,1529.492081,1601.089766,2.0156492603453247
225,666.765331,584.845795,-608.386668,-274.516742,193.7676,452.853943,407.411364,781.610378,2.013054187067887
226,35.294351,682.117747,-173.444346,-375.079287,-528.342449,-685.49745,-804.669353,-50.869009,2.0107363098387623
227,-331.176629,684.389699,25.497975,-308.641833,-886.452498,-1252.848844,-1351.75007,-512.348396,2.0087310177690303
228,-560.647609,590.661651,-63.559703,-444.204379,-1158.562547,-1719.200237,-1510.830787,-666.827783,2.0070663568756846
229,-852.118589,454.933603,-146.617381,-904.766925,-1817.672596,-2567.551631,-1974.911504,-852.307171,2.005762595183818
230,-240.58957,520.205555,-504.675059,-1111.329471,-1641.782645,-1905.903024,-1278.992221,-292.786558,2.0048319634091034
231,11.93945,620.477508,-408.732737,-634.892017,-829.892694,-981.254417,-680.072938,-123.265945,2.0042785754646477
232,348.46847,951.74946,-147.790415,-256.454563,-365.002743,-374.605811,-205.153655,94.254667,2.0040985287841484
233,1121.99749,1014.021412,-561.848093,-372.017108,214.887208,696.042796,892.765628,1199.77528,2.004280180212103
234,1295.52651,887.293364,-565.905771,-55.579654,742.777159,1560.691402,1579.68491,1931.295893,2.004804589086925
235,183.05553,624.565316,-300.963449,-221.1422,112.66711,598.340009,398.604193,938.816506,2.005646115236805
236,-319.415451,725.837268,43.978873,-523.704746,-909.442939,-734.011385,-807.476524,-115.662882,2.0067731560181787
237,-109.886431,743.10922,-303.078805,-1168.267292,-1570.552988,-1500.362778,-1494.557241,-515.142269,2.008149003341828
238,-123.357411,612.381172,-197.136483,-537.829838,-1169.663037,-1593.714171,-1374.637958,-469.621656,2.00973279893077
239,-680.828391,528.653124,-38.194161,-672.392384,-1464.773086,-2228.065565,-1769.718675,-819.101044,2.0114805639036577
240,-232.299371,610.925076,-125.25184,-633.954929,-1259.883134,-1562.416958,-1042.799392,-224.580431,2.0133462772296746
241,257.229649,786.197028,-374.309518,-951.517475,-1125.993183,-973.768352,-490.880109,202.940182,2.015282976692672
242,615.758668,1018.46898,-63.367196,-585.080021,-684.103232,-395.119745,-36.960826,537.460795,2.0172438557538905
243,925.287688,571.740932,-483.424874,-128.642567,321.786719,959.528861,1207.958457,1281.981407,2.019183330117259
244,1363.816708,942.012884,-367.482552,-16.205113,771.67667,1702.177468,1641.877739,1578.50202,2.0210580488651972
245,615.345728,908.284836,-250.54023,-330.767659,-76.433379,498.826075,344.797022,686.022633,2.022827826715564
246,-342.125252,411.556788,-218.597908,-723.330205,-1036.543428,-762.525319,-862.283695,-193.456755,2.0244564762055264
247,-872.596232,145.828741,-452.655586,-1099.89275,-1446.653477,-1400.876712,-1491.364412,-706.936142,2.0259125213747136
248,-823.067212,250.100693,-269.713264,-953.455296,-1421.763526,-1669.228106,-1528.445129,-762.415529,2.0271697777241804
249,-854.538193,406.372645,-10.770942,-992.017842,-1841.873575,-2464.579499,-1890.525846,-844.894917,2.0282077867846886
250,-402.009173,423.644597,-181.82862,-793.580388,-1296.983624,-1609.930892,-970.606563,-162.374304,2.0290120974441486
251,-66.480153,393.916549,-375.886298,-594.142934,-686.093673,-672.282286,-186.68728,247.146309,2.029574390160161
252,528.048867,743.188501,-120.943976,-277.70548,-291.203722,-176.633679,207.232003,717.666922,2.029892444216371
253,1422.577887,1087.460453,88.998346,171.731974,572.686229,1171.014927,1384.151286,1624.187534,2.029969952166974
254,1466.106907,973.732405,-376.059333,-166.830571,668.57618,1633.663534,1630.070568,1693.708147,2.029816189450289
255,312.635926,572.004357,-457.117011,-481.393117,-222.533868,330.31214,179.989851,532.22876,2.0294455507427465
256,-804.835054,82.276309,-671.174689,-892.955663,-1006.643917,-884.039253,-1021.090866,-607.250628,2.028876967878871
257,-1179.306034,-75.451739,-699.232367,-1155.518209,-1534.753966,-1510.390646,-1588.171583,-1080.730015,2.0281332270003083
258,-508.777014,307.820213,-452.290045,-1054.080755,-1719.864015,-1767.74204,-1454.2523,-444.209402,2.0272402049485736
259,-315.247994,533.092165,-292.347723,-1101.643301,-1988.974064,-2360.093433,-1689.333017,-258.688789,2.0262260467263125
260,-56.718974,581.364117,-389.405401,-917.205847,-1355.084113,-1512.444827,-978.413734,-20.168177,2.02512030707913
261,240.810045,544.636069,-276.463079,-500.768392,-680.194162,-589.79622,-263.494451,398.352436,2.02395307986868
262,547.339065,695.908021,-231.520757,-315.330938,-380.304211,-125.147614,147.424832,662.873049,2.022754138907782
263,1334.868085,1124.179974,18.421565,156.106516,345.58574,1083.500993,1244.344115,1378.393661,2.0215521133161016
264,1572.397105,990.451926,-429.636113,38.54397,998.475691,2010.1496,1877.263397,1659.914274,2.0203737192521585
265,652.926125,630.723878,-140.693791,178.981424,467.365642,837.798206,639.18268,763.434887,2.019243068120907
266,-743.544855,123.99583,102.248531,-93.581122,-350.744407,-301.553187,-613.898037,-319.0445,2.018181069096434
267,-1049.015835,-82.732218,114.190852,-499.143668,-1196.854456,-1066.904581,-1179.978754,-749.523888,2.0172049410994117
268,-689.486816,473.539734,-348.866826,-1064.706213,-1312.964505,-1409.255974,-1210.059471,-411.003275,2.0163278463022163
269,-927.957796,950.811686,59.075496,-820.268759,-1623.074554,-2045.607367,-1481.140188,-421.482662,2.015558653882962
270,-488.428776,1166.083638,69.017818,-584.831305,-1047.184603,-1168.958761,-640.220905,190.03795,2.0149018392011744
271,228.100244,1081.35559,8.96014,-396.393851,-597.294651,-510.310154,-165.301622,485.558563,2.0143575199146158
272,1028.629264,1077.627542,40.902462,-235.956397,-294.4047,28.338452,333.617661,874.079176,2.0139216268925053
273,1557.158284,966.899494,-464.155216,-324.518943,358.485251,1098.987059,1304.536944,1651.599789,2.0135862041978996
274,1583.687303,907.171446,-555.212894,-231.081489,736.375202,1730.635665,1637.456226,1821.120401,2.0133398290010485
275,668.216323,689.443398,-421.270572,-482.644034,-82.734847,562.284272,394.375509,857.641014,2.013168139130354
276,-91.254657,572.71535,-179.32825,-518.20658,-634.844896,-467.067121,-771.705208,19.161627,2.013054453145084
277,-513.725637,432.987302,-240.385928,-752.769126,-1096.954945,-1140.418515,-1358.785925,-404.317761,2.0129804653920274
278,-514.196617,473.259254,-211.443606,-890.331672,-1347.064994,-1444.769908,-1344.866642,-406.797148,2.0129269965440733
279,-900.667597,410.531206,-164.501284,-1004.894218,-1784.175043,-2175.121302,-1793.947359,-739.276535,2.012874778657537
280,-469.138577,536.803159,-147.558962,-668.456764,-1093.285092,-1220.472695,-953.028076,-199.755922,2.012805252859477
281,-257.609558,537.075111,-311.616641,-612.01931,-687.395141,-534.824088,-389.108793,-224.23531,2.0127013574053207
282,300.919462,742.347063,-184.674319,-457.581855,-439.50519,-26.175482,28.81049,-162.714697,2.012548284036311
283,1161.448482,987.619015,-392.731997,-252.144401,411.384761,1261.473125,1223.729773,886.805916,2.0123341813076014
284,1590.977502,1403.890967,21.210325,314.293053,1174.274712,2134.121731,1694.649055,1888.326528,2.0120507848300435
285,635.506522,1313.162919,131.152647,-36.269493,232.164663,883.770338,429.568338,960.847141,2.0116939561381444
286,-885.964458,611.434871,-339.905031,-774.832039,-857.945385,-636.581056,-1189.512379,-714.632246,2.0112641141181604
287,-1316.435439,113.706823,-658.962709,-1218.394585,-1411.055434,-1306.932449,-1774.593096,-1205.111633,2.0107665455485964
288,-502.906419,427.978775,-534.020387,-1185.957131,-1501.165483,-1540.283842,-1484.673813,-102.591021,2.010211584256374
289,-648.377399,529.250727,-69.078065,-920.519676,-1668.275532,-2045.635236,-1568.75453,17.929592,2.009614651604296
290,-472.848379,441.522679,-128.135743,-700.082222,-1088.385581,-1145.986629,-843.835247,140.450205,2.00899615442233
291,137.680641,663.794631,252.806579,-16.644768,-423.49563,-301.338023,-185.915964,432.970817,2.0083812399963077
292,439.209661,810.066583,-108.251099,-390.207314,-260.605679,164.310584,259.003319,704.49143,2.0077994112507027
293,1005.73868,970.338535,-136.308777,16.23014,452.284272,1279.95919,1363.922602,1469.012043,2.007284008725109
294,1358.2677,751.610487,-431.366455,48.667594,1038.174223,2075.607797,1753.841884,1729.532656,2.006871569266827
295,950.79672,1104.882439,-240.424134,-328.894952,53.064174,793.256404,471.761167,945.053268,2.0066010744680605
296,36.32574,831.154392,-142.481812,-508.457497,-660.045875,-382.09499,-678.31955,93.573881,2.0065131046944376
297,-719.14524,535.426344,-70.53949,-686.020043,-1159.155924,-1147.446383,-1326.400267,-495.905506,2.006648917017481
298,-913.61622,546.698296,-17.597168,-830.582589,-1503.265973,-1554.797777,-1436.480984,-620.384894,2.007049467421053
299,-1534.0872,45.970248,-95.654846,-670.145135,-1744.376022,-2154.14917,-1787.561701,-933.864281,2.0077543992536895
300,-555.558181,236.2422,133.287476,-337.707681,-979.486071,-1128.500563,-914.642418,-501.343668,2.0088010210083764
301,256.970839,692.514152,495.229798,219.729773,-158.59612,-202.851957,-300.723135,-741.823055,2.010223297102816
302,-543.500141,483.786104,-569.82788,-625.832773,-296.706168,34.79665,-190.803852,-2978.302443,2.0120508753920707
303,-416.971121,1121.058056,-7.885558,321.604682,925.183783,1538.445256,1007.115431,-2996.78183,2.0143081746686677
304,-71.442101,1297.330008,526.056764,1041.042136,1758.073734,2621.093863,1742.034713,-758.261217,2.017013554401579
305,789.086919,1530.60196,1050.999086,955.47959,412.963685,1241.742469,819.953996,1792.259395,2.0201785874551095
306,1363.615938,1148.873912,189.941408,-168.082956,-195.146364,217.391076,114.873279,2616.780008,2.0238074545426676
307,156.144958,499.145864,-377.11627,-960.645502,-1293.256413,-1300.960317,-1148.207438,1460.300621,2.0278964767499925
308,-400.326022,736.417816,-130.173949,-941.208048,-1535.366462,-1596.311711,-1369.288155,587.821234,2.0324337996583224
309,-1489.797002,285.689768,-60.231627,-882.770594,-1784.476511,-2254.663104,-1914.368872,-394.658154,2.03739923946916
310,-1918.267982,-236.03828,-274.289305,-772.333139,-1202.58656,-1366.014498,-1272.449589,-1505.137541,2.042764298144823
311,-1717.738962,-357.766328,-368.346983,-588.895685,-699.696609,-609.365891,-798.530306,-2250.616928,2.048492351004623
312,-406.209943,114.505625,-207.404661,-226.458231,-344.806658,-75.717285,-97.611023,-868.096316,2.0545390065313356
313,804.319077,898.777577,-161.462339,319.979223,959.083293,1652.931322,1626.30826,1736.424297,2.060852634425465
314,2128.848097,1643.049529,20.479983,623.416677,1325.973244,2367.579929,2078.227543,3001.94491,2.0673750542754914
315,1801.377117,1541.321481,20.422305,64.854131,228.863195,941.228535,694.146825,2171.465523,2.0740423736701445
316,-139.093863,956.593433,94.364627,-258.708415,-616.246854,-394.122858,-773.933892,388.986135,2.0807859612408657
317,-970.564843,491.865385,680.306949,-269.27096,-1210.356903,-1133.474252,-1295.014609,76.506748,2.0875335370621078
318,-668.035823,402.137337,255.249271,-354.833506,-1587.466951,-1472.825645,-1224.095326,262.027361,2.094210360121874
319,-410.506804,1181.409289,681.191593,-242.396052,-1773.577,-2286.177038,-1920.176043,-615.452027,2.1007404902659395
320,166.022216,1120.681241,243.133915,-119.958598,-789.687049,-1151.528432,-1007.25676,-388.931414,2.107048100169405
321,47.551236,845.953193,-147.923763,-418.521144,-844.797098,-552.879825,-329.337477,-53.410801,2.113058811542077
322,-320.919744,314.225145,-555.981442,-268.08369,-180.907147,170.768781,215.581806,-85.890188,2.1187010289627306
323,657.609276,391.497097,-675.03912,25.353764,869.982804,1632.417388,1634.501089,1224.630424,2.123907244483618
324,1637.138296,839.769049,-452.096798,319.791219,1204.872755,2324.065994,2133.420372,2586.151037,2.1286152864608514
325,1007.667315,1189.041001,64.845524,401.228673,456.762706,1016.714601,682.339654,1610.67165,2.1327694869467018
326,-130.803665,1033.312953,-54.212154,-217.333873,-860.347343,-737.636792,-979.741063,-327.807738,2.13632174341236
327,-848.274645,656.584905,-97.269832,-356.896419,-1266.457392,-1159.988186,-1375.82178,-1008.287125,2.139232452528261
328,-794.745625,684.856857,142.67249,-192.458965,-1382.567441,-1394.339579,-1338.902497,-331.766512,2.1414712961760096
329,-565.216605,774.12881,-398.385188,-861.021511,-1804.67749,-2133.690973,-1681.983214,-41.245899,2.143017862752741
330,60.312415,852.400762,-565.442866,-621.584057,-1284.787539,-1265.042366,-871.063931,500.274713,2.1438620900968344
331,113.841434,884.672714,-311.500544,-182.146602,-714.897588,-410.39376,-267.144648,484.795326,2.1440045199458453
332,428.370454,1000.944666,-352.558222,-254.709148,-685.007637,-12.745153,78.774635,724.315939,2.143456357658466
333,1100.899474,1170.216618,-327.6159,194.728306,324.882315,1215.903454,1238.693918,1507.836551,2.1422393349114426
334,1202.428494,1235.48857,-348.673578,219.16576,599.772266,1893.55206,1614.613201,1647.357164,2.1403853771346233
335,309.957514,909.760522,-448.731257,-362.396786,-436.337783,612.200667,257.532483,715.877777,2.137936081485264
336,-311.513466,711.032474,-323.788935,-549.959332,-1186.447832,-606.150727,-882.548234,-2.60161,2.1349420150985345
337,-718.984446,704.304426,391.153387,288.478122,-950.557881,-1211.50212,-1600.628951,-555.080998,2.131461847098347
338,-504.455427,839.576378,743.095709,630.915577,-1180.66793,-1397.853513,-1632.709668,-452.560385,2.1275613313280566
339,-854.926407,400.84833,-625.961969,-1024.646969,-1778.777979,-2196.204907,-1851.790385,-579.039772,2.123312159886328
340,-246.397387,868.120282,-6.019647,-139.209515,-935.888028,-1232.5563,-1024.871102,-59.51916,2.1187907102587107
341,186.131633,958.392234,-69.077325,125.227939,-380.998077,-403.907694,-327.951819,397.001453,2.114076711058103
342,381.660653,1019.664186,101.864997,381.665393,-84.108126,62.740913,81.967464,590.522066,2.1092518530756115
343,1058.189673,1044.936138,-347.192681,65.102847,216.781825,1140.389519,1152.886747,1411.042679,2.104398373457314
344,1203.718692,833.20809,-673.250359,250.540301,865.671776,1878.038126,1477.80603,1676.563291,2.099597641334768
345,203.247712,549.480043,-208.308037,261.977756,141.561727,751.686733,199.725312,638.083904,2.0949287731337716
346,-750.223268,431.751995,-612.365715,-603.58479,-1064.548322,-761.664661,-1208.355405,-559.395483,2.090467305066711
347,-1048.694248,1047.023947,-294.423393,-395.147336,-1428.658371,-1353.016054,-1877.436122,-1257.874871,2.086283948992666
348,-1347.165228,920.295899,-341.481071,-438.709882,-1106.76842,-1289.367448,-1655.516839,-1322.354258,2.0824434559340492
349,-2402.636208,336.567851,-214.53875,-482.272428,-1483.878468,-2023.718841,-2169.597556,-2926.833645,2.0790036091100856
350,-1649.107189,903.839803,83.403572,-92.834974,-742.988517,-946.070234,-1337.678273,-3051.313032,2.076014365439598
351,-925.578169,566.111755,-224.654106,-326.39752,-534.098566,-319.421628,-731.75899,-1695.79242,2.0735171611433985
352,-245.049149,191.383707,-0.711784,171.039935,206.791385,623.226979,185.160293,287.728193,2.07154439341519
353,186.479871,-180.344341,-217.769462,334.477389,662.681336,1516.875585,1194.079576,1197.248806,2.0701190862127103
354,1132.008891,936.927611,364.17286,1316.914843,1447.571287,2278.524192,1598.998859,1051.769418,2.0692547441379396
355,1290.537911,1637.199563,174.115182,638.352297,479.461238,801.172798,105.918141,-27.709969,2.068955394220795
356,896.066931,1758.471515,235.057504,303.789751,-164.648811,-135.178595,-706.162576,155.810644,2.069215811291326
357,645.59595,1554.743467,545.999826,298.227205,-458.75886,-626.529988,-998.243293,1326.331257,2.0700219186173583
358,226.12497,990.015419,31.942148,-314.335341,-1210.868909,-1306.881382,-1252.32401,1438.851869,2.071351351691753
359,-397.34601,608.287371,-410.11553,-950.897886,-2001.978958,-2425.232775,-2010.404727,496.372482,2.073174169565135
360,-401.81699,731.559323,-280.173208,-544.460432,-1476.089007,-1612.584169,-1352.485444,123.893095,2.0754536950183686
361,-524.28797,615.831275,-147.230886,-242.022978,-1113.199056,-683.935562,-590.566161,-244.586293,2.0781474622274616
362,-224.75895,-30.896772,-697.288565,-722.585524,-791.309105,-43.286956,12.353122,297.93432,2.081208248454222
363,903.770069,208.37518,-693.346243,-455.14807,-92.419154,1011.361651,1050.272405,1646.454933,2.084585164748638
364,1708.299089,1078.647132,-142.403921,647.289384,916.470798,1991.010258,1645.191688,2351.975546,2.0882247797096176
365,267.828109,977.919084,-127.461599,931.726838,505.360749,822.658864,206.11097,827.496158,2.0920722500405087
366,-734.642871,399.191036,-278.519277,326.164293,-484.7493,-453.692529,-1144.969747,-556.983229,2.0960724319604016
367,-714.113851,504.462988,-439.576955,-577.398253,-1149.859349,-1268.043923,-1756.050464,-864.462616,2.1001709484813595
368,-34.584831,1103.73494,-104.634633,-574.960799,-1022.969398,-1361.395316,-1620.131181,-266.942004,2.1043151891097387
369,-294.055812,976.006892,79.307689,-493.523345,-1357.079447,-1999.746709,-1893.211898,-374.421391,2.1084552206359293
370,-173.526792,714.278844,-352.749989,-706.085891,-1187.189496,-1350.098103,-1171.292615,-61.900778,2.1125445902864635
371,-168.997772,660.550796,-227.807667,-336.648437,-876.299545,-720.449496,-620.373332,-123.380165,2.1165410055578957
372,-856.468752,332.822748,-474.865345,-456.210983,-728.409594,-250.80089,-371.454049,-1246.859553,2.1204068784544035
373,-537.939732,716.0947,-144.923023,426.226472,775.480357,1244.847717,850.465234,-595.33894,2.1241097255228776
374,556.589288,1319.366652,344.019299,1055.663926,1482.370308,2094.496323,1445.384517,870.181673,2.127622418925565
375,484.118308,516.638604,261.961621,570.10138,692.260259,1115.14493,361.303799,-570.297715,2.130923287711809
376,-1961.352673,-1087.089444,-419.096058,-165.461166,-283.84979,-270.206463,-1255.776918,-3027.777102,2.133996072345863
377,-2105.823653,42.182508,-44.153736,-251.023712,-825.959839,-860.557857,-1700.857635,-1651.256489,2.1368297393166857
378,-54.294633,2051.454461,1064.788586,494.413742,-686.069888,-879.90925,-1135.938352,733.264124,2.139418166201037
379,164.234387,1350.726413,152.730908,-336.148804,-1603.179937,-2088.260644,-1741.019069,366.784736,2.1417597107818063
380,931.763407,1228.998365,6.67323,-86.711349,-983.289985,-1316.612037,-1059.099786,471.305349,2.1438566806564956
381,656.292427,1211.270317,-5.384448,-15.273895,-428.400034,-488.963431,-453.180503,947.825962,2.145714722133752
382,921.821446,815.542269,-731.442126,-512.836441,-333.510083,-21.314824,133.73878,1616.346574,2.1473421490489484
383,1422.350466,836.814221,-785.499804,-203.398987,393.379868,1115.333783,1090.658063,2060.867187,2.1487492333874276
384,1583.879486,1120.086173,-364.557482,150.038467,564.269819,1700.982389,1314.577346,1897.3878,2.1499474802558565
385,569.408506,730.358125,-548.61516,-276.524079,31.15977,691.630996,121.496628,816.908413,2.1509489097742356
386,-436.062474,394.630077,-581.672838,-695.086625,-845.950279,-363.720398,-981.584089,-239.570975,2.15176536787605
387,-760.533454,424.902029,-444.730516,-902.64917,-1540.060328,-1150.071791,-1637.664806,-692.050362,2.152407886821029
388,-691.004434,563.173981,-108.788194,-197.211716,-1214.170377,-1555.423184,-1724.745523,-731.529749,2.152886114479263
389,-1121.475415,473.445933,-34.845872,-148.774262,-1349.280426,-2228.774578,-2278.82624,-1732.009137,2.153207829187362
390,-813.946395,481.717885,-353.903551,-308.336808,-802.390475,-1211.125971,-1396.906957,-1664.488524,2.153378554270874
391,-311.417375,475.989837,-132.961229,156.100646,-107.500524,-233.477365,-456.987674,-137.967911,2.1534012832484213
392,544.111645,968.261789,258.981093,751.5381,565.389427,586.171242,195.931609,1123.552702,2.1532763233678236
393,1666.640665,1762.533741,286.923415,969.975554,1293.279378,1770.819848,1309.850892,2007.073314,2.153001261566258
394,1423.169685,1409.805694,-578.134263,472.413009,1410.169329,2224.468455,1534.770175,1839.593927,2.152571053293426
395,-296.301296,900.077646,-427.191941,123.850463,477.05928,1021.117062,59.689457,-222.88546,2.1519782309893105
396,-2380.772276,-165.650402,-129.249619,-33.712083,-170.050768,19.765668,-1209.39126,-2531.364848,2.151213225466308
397,-2905.243256,-364.37845,-507.307297,-681.274629,-1250.160817,-1128.585725,-2024.471977,-2957.844235,2.1502647901060086
398,-1199.714236,1275.893502,596.635025,343.162825,-744.270866,-1046.937119,-1710.552694,-1284.323622,2.1491205147343333
399,-966.185216,671.165454,192.577347,12.600279,-1242.380915,-1608.288512,-1766.633411,-286.803009,2.1477674133674136
400,-320.656196,241.437406,-192.480331,-388.962267,-1276.490964,-1089.639905,-1057.714128,806.717603,2.146192567796063
401,633.872823,695.709358,-407.538009,-675.524812,-943.601013,-706.991299,-750.794845,700.238216,2.144383807257939
402,299.401843,1062.98131,-339.595687,-184.087358,-480.711062,-163.342692,-508.875562,-151.241171,2.1423304032783923
403,224.930863,649.253262,-566.653366,-93.649904,557.178889,1304.305914,642.043721,189.279441,2.140023758173365
404,393.459883,-79.474786,-312.711044,495.78755,1424.06884,2278.954521,1140.963004,301.800054,2.1374580657142466
405,-575.011097,-432.202834,-341.768722,244.225004,713.958791,1217.603127,21.882286,-1343.679333,2.1346309230529292
406,-1867.482077,433.069118,-210.8264,-273.337542,-524.151258,-340.748266,-1439.198431,-2352.15872,2.1315438741770314
407,-1460.953057,1389.34107,-52.884078,-464.900088,-884.261307,-1040.099659,-1959.279148,-1247.638108,2.1282028668765647
408,276.575962,1836.613022,170.058244,-281.462633,-658.371356,-1010.451053,-1481.359865,533.882505,2.1246186074062137
409,717.104982,1427.884974,169.000566,-423.025179,-1449.481405,-1835.802446,-1714.440582,902.403118,2.120806799661068
410,729.634002,1265.156926,250.942888,125.412275,-638.591454,-806.15384,-773.521299,1122.92373,2.1167882586762996
411,524.163022,979.428879,-128.11479,-19.150271,-155.701502,-69.505233,-201.602016,880.444343,2.112588891532185
412,491.692042,805.700831,-655.172468,-752.712817,-471.811551,12.143373,-134.682733,740.964956,2.108239542207598
413,1491.221062,1387.972783,-191.230146,-24.275363,590.0784,1273.79198,908.23655,1587.485569,2.1037757004860977
414,1660.750081,1415.244735,-11.287824,635.162091,1324.968351,2361.440587,1579.155833,1675.006181,2.099237078585681
415,152.279101,698.516687,-335.345502,330.599546,425.858302,1031.089193,37.075116,-516.473206,2.094667062663759
416,-842.191879,708.788639,588.59682,716.037,74.748253,45.7378,-1094.005602,-2116.952593,2.0901120496537198
417,-1082.662859,791.060591,916.539141,291.474454,-635.361796,-785.613594,-1660.086319,-1690.431981,2.0856206829347865
418,-411.133839,1160.332543,811.481463,-2.088092,-891.471845,-896.964987,-1395.167036,-125.911368,2.0812430030465774
419,-537.604819,716.604495,558.423785,-303.650638,-1408.581894,-1668.31638,-1718.247753,180.609245,2.077029531967157
420,-831.0758,367.876447,-152.633893,-824.213184,-1669.691943,-1482.667774,-1493.32847,-248.870142,2.0730303113227877
421,-837.54678,545.148399,133.308429,-115.77573,-704.801992,-546.019167,-878.409187,-585.34953,2.0692939162456065
422,-198.01776,505.420351,-490.749249,-416.338275,-24.912041,301.629439,-180.489904,-12.828917,2.0658664674118725
423,1264.51126,746.692303,-449.806927,-220.900821,296.97791,1392.278046,1056.429379,1594.691696,2.0627906640616653
424,1406.04028,708.964255,-640.864605,-179.463367,686.867861,2106.926652,1419.348662,1827.212308,2.0601048605181544
425,190.5693,510.236207,-452.922283,-377.025913,-58.242188,856.575259,5.267945,391.732921,2.057842207901681
426,-676.90168,374.508159,-182.979961,-343.588459,-675.352237,-300.776134,-1189.812773,-728.746466,2.056029881394794
427,-632.372661,324.780112,-349.037639,-717.151005,-1075.462285,-902.127528,-1599.89349,-620.225853,2.054688411595192
428,-422.843641,451.052064,-168.095317,-383.713551,-932.572334,-1077.478921,-1479.974207,-375.705241,2.0538311362414117
429,-809.314621,472.324016,2.847005,-444.276096,-1246.682383,-1839.830315,-1993.054924,-894.184628,2.0534637859680336
430,-227.785601,751.595968,259.789326,-103.838642,-963.792432,-1062.181708,-1186.135641,-359.664015,2.053584214808201
431,-69.256581,616.86792,40.731648,-11.401188,-334.902481,-127.533102,-425.216358,-29.143403,2.0541822829827754
432,137.272439,582.139872,-104.32603,271.036266,175.98747,381.115505,19.702925,221.37721,2.055239896173383
433,837.801458,669.411824,-335.383708,337.47372,835.877421,1492.764112,1099.622208,980.897823,2.056731202049422
434,1113.330478,816.683776,-314.441386,361.911174,1225.767372,2110.412718,1433.541491,1215.418436,2.0586229413861115
435,285.859498,629.955728,-54.499064,127.348628,270.657323,913.061325,257.460774,301.939048,2.0608749477500004
436,-494.611482,377.22768,79.443258,-121.213917,-422.452726,-183.290069,-802.619944,-504.540339,2.063440786515377
437,-830.082462,367.499632,357.38558,-184.776463,-747.562775,-709.641462,-1300.700661,-857.019726,2.0662685209804046
438,-818.553442,474.771584,466.327902,45.660991,-745.672824,-928.992855,-1397.781378,-859.499114,2.0693015906402636
439,-1099.024423,287.043536,25.270224,-713.901555,-1531.782873,-1815.344249,-1798.862095,-1086.978501,2.0724797843032663
440,-502.495403,517.315488,156.212546,-205.464101,-968.892922,-1006.695642,-1059.942812,-500.457888,2.075740288753614
441,-454.966383,158.58744,-623.845132,-799.026647,-363.002971,-107.047036,-425.023529,-598.937275,2.0790187921104666
442,-531.437363,243.859392,-336.90281,-234.589193,-60.113019,182.601571,-168.104246,-780.416663,2.08225061993648
443,-156.908343,352.131345,-314.960488,266.848262,697.776932,1294.250177,966.815037,425.10395,2.0853718815287787
444,1130.620677,1321.403297,785.981833,1283.285716,1281.666883,2176.898784,1474.73432,1449.624563,2.0883206036894797
445,1050.149697,1095.675249,270.924155,327.72317,261.556834,1101.547391,386.653603,921.145175,2.0910378296187093
446,-42.321284,463.947201,-501.133523,-596.839376,-419.553215,-129.804003,-727.427115,-129.334212,2.09346866138756
447,-624.792264,205.219153,87.808799,40.598078,-573.663264,-730.155396,-1260.507832,-719.813599,2.0955632257087746
448,-626.263244,313.491105,-139.248879,-475.964468,-948.773313,-1209.50679,-1411.588549,-737.292986,2.0972775443971923
449,-831.734224,468.763057,273.693443,-360.527014,-1514.883362,-1992.858183,-1780.669266,-1038.772374,2.09857429295978
450,-634.205204,428.035009,40.635765,-239.089559,-858.993411,-1008.209577,-970.749983,-1121.251761,2.0994234331287505
451,-1196.676184,82.306961,-423.421913,-441.652105,-611.10346,-469.56097,-795.8307,-3368.731148,2.099802707796945
452,-1520.147165,113.578913,-184.479591,176.785349,111.786491,259.087637,-432.911417,-3255.210536,2.0996979896734778
453,150.381855,725.850865,-100.537269,759.222803,1251.676442,1726.736243,1190.007866,848.310077,2.099103477987104
454,2470.910875,1523.122817,104.405053,1017.660257,1603.566393,2612.38485,2238.927149,3515.83069,2.098021740660235
455,1000.439895,686.394769,-427.652625,29.097711,459.456344,1054.033456,622.846432,1991.351303,2.0964636024923173
456,-234.031085,381.666721,-285.710303,-172.464835,-404.653705,-138.317937,-686.234286,146.871915,2.0944478829623208
457,-569.502065,356.938673,-194.767982,-328.02738,-769.763754,-691.66933,-1278.315003,-548.607472,2.092000990222945
458,-506.973046,622.210625,395.17434,-10.589926,-932.873802,-984.020724,-1368.39572,-642.086859,2.0891563806534967
459,-807.444026,587.482577,572.116662,122.847528,-1203.983851,-1683.372117,-1866.476437,-1011.566247,2.0859538959080823
460,-415.915006,130.75453,-637.941016,-422.715018,-772.0939,-884.723511,-942.557154,-362.045634,2.0824389916901382
461,-223.385986,-38.973518,-643.998694,-217.277564,-566.203949,-172.074904,-259.637871,-58.525021,2.0786618744590566
462,-104.856966,-143.701566,-840.056372,-217.84011,69.686002,502.573702,263.281412,195.995592,2.0746765638926914
463,298.672054,-164.429614,-913.11405,172.597344,1079.575953,1811.222309,1404.200695,774.516204,2.070539900161637
464,594.201074,47.842338,-864.171728,343.034799,1500.465904,2479.870916,1710.119978,944.036817,2.0663105158966006
465,213.730093,517.11429,-148.229406,584.472253,1049.355855,1535.519522,646.039261,246.55743,2.0620477931369083
466,-323.740887,642.386242,253.712916,362.909707,142.245806,276.168129,-548.041457,-445.921958,2.057810825533116
467,-784.211867,161.658194,155.655238,-21.652839,-535.864243,-586.183265,-1289.122174,-1000.401345,2.0536574056457386
468,-656.682847,221.930146,82.59756,-111.215385,-654.974292,-801.534658,-1207.202891,-1026.880732,2.049643056349757
469,-1114.153827,498.202098,-111.460118,-732.777931,-1578.084341,-1707.886051,-1756.283608,-1542.360119,2.045820124143664
470,-1452.624807,-126.52595,-502.517796,-538.340477,-979.19439,-1046.237445,-1311.364325,-2027.839507,2.042236950602917
471,-1396.095788,-104.253998,-679.575475,-510.903022,-635.304439,-391.588838,-773.445042,-1767.318894,2.0389371363482907
472,-288.566768,621.017954,-560.633153,-373.465568,-291.414488,200.059768,-111.525759,-465.798281,2.0359589097635356
473,1645.962252,1061.289906,-344.690831,279.971886,793.475463,1681.708375,1368.393524,448.722331,2.0333346103427576
474,1355.491272,712.561858,-371.748509,735.40934,1456.365415,2522.356981,1705.312807,326.242944,2.031090294028892
475,842.020292,354.83381,-184.806187,848.846794,1396.255366,2144.005588,1247.23209,1077.763557,2.029245465276364
476,734.549312,323.105763,460.136135,1549.284248,1703.145317,1975.654195,1094.151372,1537.28417,2.0278129378910306
477,-2.921669,-212.622285,494.078457,1648.721702,1543.035268,1514.302801,587.070655,895.804782,2.026798824026714
478,-810.392649,-840.350333,114.020779,1173.159157,1063.925219,867.951408,165.989938,-119.674605,2.026202648107221
479,-1230.863629,-814.078381,186.963101,535.596611,-312.18483,-711.399986,-920.090779,-893.153992,2.0260175799508797
480,-335.334609,-36.806429,-111.094577,89.034065,-517.294879,-635.751379,-764.171496,-520.63338,2.026230779053073
481,432.194411,881.465523,-313.152255,-548.528481,-902.404928,-668.102773,-664.252213,-156.112767,2.0268238398785825
482,944.723431,1534.737475,64.790067,-247.091027,-877.514977,-304.454166,-240.33293,128.407846,2.027773326171883
483,1343.252451,1216.009427,-310.267611,-394.653573,-127.625026,1043.194441,989.586353,882.928459,2.0290513807458286
484,826.78147,779.281379,-557.325289,52.783881,1033.264925,2088.843047,1351.505636,798.449071,2.0306263959864848
485,-206.68951,724.553331,44.617032,375.221336,502.154876,1172.491654,295.424919,-35.030316,2.032463729435815
486,-691.16049,569.825283,-6.440646,45.65879,-84.955173,204.14026,-632.655799,-680.509703,2.0345264482981635
487,-704.63147,569.097235,82.501676,-68.903756,-633.065222,-552.211133,-1266.736516,-1052.989091,2.036776086566574
488,-677.10245,533.369187,-43.556002,-286.466302,-868.175271,-867.562526,-1272.817233,-1034.468478,2.039173398678197
489,-781.57343,447.641139,-127.61368,-437.028848,-1385.285319,-1882.91392,-1923.89795,-1286.947865,2.041679094173428
490,38.955589,477.913091,-557.671358,-511.591394,-989.395368,-1136.265313,-1205.978667,-558.427252,2.0442545387323814
491,582.484609,499.185043,-922.729036,-639.15394,-848.505417,-471.616707,-609.059384,-89.90664,2.0468624081687934
492,750.013629,528.456996,-971.786714,-656.716485,-690.615466,39.0319,-102.140101,200.613973,2.049467283442782
493,1300.542649,590.728948,-1170.844392,-290.279031,374.274485,1371.680506,1050.779182,881.134586,2.05203617647139
494,1520.071669,758.0009,-914.90207,180.158423,957.164436,2166.329113,1459.698465,1080.655198,2.054538978425782
495,800.600689,707.272852,-543.959748,167.595877,148.054387,1022.97772,276.617748,249.175811,2.056948824258592
496,-371.870291,241.544804,-784.017426,-522.966669,-739.055662,-194.373674,-840.46297,-687.303576,2.0592423693535973
497,-976.341272,165.816756,-580.075104,-454.529215,-844.165711,-681.725067,-1384.543687,-1126.782963,2.06139997638009
498,-395.812252,561.088708,-375.132783,-499.091761,-1044.27576,-966.076461,-1475.624404,-1041.262351,2.0634058126129506
499,-318.283232,394.36066,-130.190461,-441.654306,-1444.385809,-1680.427854,-1853.705121,-1228.741738,2.065247860094234
500,-70.754212,365.632612,-470.248139,-344.216852,-894.495858,-801.779248,-1006.785838,-685.221125,2.066917843012546
501,189.774808,398.904564,-689.305817,-324.779398,-471.605907,-47.130641,-343.866555,-303.700513,2.0684110785156062
502,470.303828,447.176516,-754.363495,-171.341944,-77.715956,481.517966,112.052728,60.8201,2.069726258806152
503,1234.832847,546.448468,-589.421173,401.09551,829.173995,1831.166572,1378.972011,836.340713,2.070865173764213
504,1442.361867,626.72042,-636.478851,393.532964,1024.063946,2455.815179,1722.891294,1058.861326,2.0718323844584945
505,468.890887,747.992372,-378.536529,347.970418,319.953898,1244.463785,408.810577,199.381938,2.0726348587320054
506,-419.580093,512.264324,-410.594207,-45.592127,-487.156151,29.112392,-821.270141,-722.097449,2.0732815805556686
507,-944.051073,113.536276,-727.651885,-543.154673,-967.2662,-683.239001,-1412.350858,-1310.576836,2.0737831450300996
508,-830.522053,138.808228,-661.709563,-549.717219,-1002.376249,-822.590395,-1378.431575,-1863.056224,2.074151350780146
509,-1104.993034,271.080181,-340.767241,-485.279765,-1569.486298,-1526.941788,-1818.512292,-2965.535611,2.0743988010375283
510,-672.464014,321.352133,-276.824919,-131.842311,-704.596347,-385.293182,-805.593009,-1610.014998,2.0745385239607708
511,291.065006,351.624085,-172.882597,548.595143,350.293604,620.355425,177.326274,443.505615,2.0745836217229763
512,962.594026,541.896037,-289.940276,401.032597,368.183555,990.004031,634.245557,1246.026227,2.0745469566386445
513,1385.123046,470.167989,-576.997954,401.470052,869.073506,1945.652638,1518.16484,1456.54684,2.0744408811388073
514,1554.652066,794.439941,-147.055632,993.907506,1278.963457,2522.301245,1704.084123,1299.067453,2.0742770167829203
515,875.181086,850.711893,29.88669,672.34496,427.853408,1298.949851,369.003406,424.588065,2.074066085764112
516,16.710105,475.983845,-254.170988,37.782414,-451.256641,197.598458,-658.077311,-421.891322,2.0738177965725155
517,-401.760875,388.255797,-231.228666,-261.780132,-919.36669,-508.752936,-1361.158029,-966.370709,2.073540783682035
518,-459.231855,476.527749,163.713656,-135.342678,-1297.476739,-949.104329,-1473.238746,-1120.850096,2.073242599371583
519,-721.702835,162.799701,-321.344022,-455.905224,-1741.586788,-1672.455723,-1801.319463,-1232.329484,2.0729297541338063
520,-247.173815,21.071653,-538.4017,88.532231,-694.696836,-546.807116,-756.40018,-622.808871,2.0726078006111717
521,110.355205,98.343605,-409.459378,275.969685,-368.806885,251.841491,-56.480897,-197.288258,2.072281454675344
522,254.884224,-47.384443,-895.517056,35.407139,144.083066,843.490097,431.438386,146.232354,2.071954746169794
523,859.413244,39.887509,-797.574734,724.844593,1361.973017,2219.138704,1670.357669,895.752967,2.071631190999489
524,1146.942264,214.159461,-806.632412,787.282047,1753.862968,2892.78731,1981.276952,1111.27358,2.071313975699651
525,525.471284,602.431414,-358.690091,562.719501,728.752919,1476.435917,502.196235,109.794193,2.0710061453635795
526,-379.999696,594.703366,-155.747769,206.156955,-222.35713,175.084524,-838.884482,-944.685195,2.0707107858642195
527,-823.470676,227.975318,-341.805447,-148.40559,-791.467179,-535.26687,-1446.9652,-1328.164582,2.0704311916628004
528,-502.941657,243.24727,-291.863125,-110.968136,-881.577228,-729.618263,-1245.045917,-728.643969,2.07017101114866
529,-882.412637,50.519222,-283.920803,-177.530682,-1101.687277,-1274.969657,-1562.126634,-1078.123357,2.069934362376272
530,-472.883617,64.791174,-348.978481,5.906772,-679.797326,-453.32105,-792.207351,-634.602744,2.0697259132292873
531,-34.354597,-1.936874,-585.036159,14.344226,-344.907375,255.327556,-150.288068,-157.082131,2.0695509214099648
532,400.174423,197.335078,-599.093837,70.78168,17.982576,730.976163,347.631215,166.438482,2.0694152311821754
533,1518.703443,964.60703,-16.151515,848.219134,925.872527,2068.62477,1591.550498,1169.959094,2.0693252254384156
534,1677.232463,1230.878982,124.790807,903.656589,1356.762478,2839.273376,1982.469781,1201.479707,2.0692877333633275
535,820.761482,1218.150934,333.733129,813.094043,772.652429,1788.921983,750.389064,76.00032,2.069309895673199
536,-197.709498,754.422886,128.675451,601.531497,277.542381,720.570589,-350.691653,-829.479068,2.069398991067511
537,-429.180478,641.694838,316.617773,606.968951,-268.567668,-84.780804,-1074.772371,-1008.958455,2.069562229080733
538,-670.651458,363.96679,480.560095,630.406405,-373.677717,-405.132197,-1181.853088,-1140.437842,2.0698065159189754
539,-1335.122438,-414.761258,-218.497584,50.843859,-955.787766,-1272.483591,-1623.933805,-1469.917229,2.0701382010599914
540,-1066.593418,-37.489306,-244.555262,-70.718687,-890.897815,-660.834984,-933.014522,-906.396617,2.0705628133455565
541,-247.064399,901.782647,-205.61294,45.718768,-610.007864,-208.186378,-439.095239,-388.876004,2.0710847959691354
542,680.464621,835.054599,-607.670618,-182.843778,-303.117913,253.462229,23.824044,145.644609,2.0717072501339895
543,1829.993641,535.326551,-793.728296,170.593676,713.772038,1808.110835,1578.743327,1349.165221,2.0724316972117416
544,1663.522661,576.598503,-561.785974,710.03113,1435.661989,2859.759442,2142.66261,1392.685834,2.0732578689629766
545,281.051681,261.870455,-267.843652,595.468584,765.55194,1646.408049,677.581893,123.206447,2.074183534793905
546,-960.419299,-161.857593,-357.90133,373.906038,-76.558109,272.056655,-665.498824,-939.27294,2.0752043741306787
547,-1381.89028,-130.585641,-407.959008,-235.656508,-1126.668158,-717.294738,-1636.579542,-2056.752328,2.0763139008196045
548,-1503.36126,17.686311,-794.016686,-524.219053,-1191.778207,-1114.646132,-1929.660259,-2620.231715,2.0775034450400054
549,-1511.83224,311.958263,-667.074364,-582.781599,-1564.888256,-1739.997525,-2089.740976,-2216.711102,2.078762196587658
550,-523.30322,433.230215,-779.132042,-376.344145,-937.998305,-692.348919,-911.821693,-670.19049,2.08007731159808
551,140.2258,-303.497833,-1106.18972,-265.906691,-643.108353,65.299688,-96.90241,154.330123,2.0814340828831863
552,283.75482,-337.225881,-1244.247399,-286.469237,-195.218402,554.948295,281.016873,155.850736,2.082816172108483
553,846.28384,-18.953929,-1133.305077,260.968217,735.671549,1816.596901,1481.936156,784.371349,2.084205900099572
554,904.812859,9.318023,-1076.362755,483.405672,1135.5615,2496.245508,1781.855439,935.891961,2.0855845896949865
555,293.341879,147.589975,-715.420433,153.843126,272.451451,1203.894114,417.774722,14.412574,2.086932953814346
556,-293.129101,490.861927,-43.478111,203.28058,-508.658598,-72.457279,-778.305995,-840.066813,2.088231519840308
557,-778.600081,468.133879,108.464211,206.718034,-810.768647,-624.808672,-1442.386713,-1328.546201,2.089461080068561
558,-826.071061,156.405832,-560.593467,-511.844512,-1195.878696,-1013.160066,-1591.46743,-1299.025588,2.0906031569046135
559,-785.542041,289.677784,-258.651145,-656.407058,-1797.988745,-1653.511459,-1729.548147,-1342.504975,2.0916404707140885
560,-162.013022,419.949736,-312.708823,-445.969604,-1381.098794,-753.862853,-782.628864,-656.984362,2.0925573977908636
561,-0.484002,224.221688,-572.766501,-114.532149,-691.208843,43.785754,-213.709581,-405.46375,2.093340405811407
562,150.045018,87.49364,-760.824179,10.905305,119.681108,723.43436,300.209702,-121.943137,2.093978454400943
563,997.574038,400.765592,-561.881857,754.342759,1274.571059,2061.082967,1478.128985,712.577476,2.094463349044382
564,1297.103058,691.037544,-306.939535,966.780213,1302.46101,2557.731574,1798.048268,868.098088,2.094790037519123
565,583.632078,747.309496,68.002787,728.217667,398.350961,1345.38018,463.967551,21.618701,2.094956839285168
566,-261.838903,387.581448,-308.054892,65.655121,-449.759088,139.028787,-711.113166,-745.860686,2.0949655998090653
567,-922.309883,138.8534,-203.11257,-62.907425,-809.869136,-547.322607,-1377.193884,-1407.340073,2.09482176358261
568,-1080.780863,71.125352,-158.170248,-27.46997,-1440.979185,-1096.674,-1610.274601,-1558.819461,2.0945343615788916
569,-1402.251843,-282.602696,-734.227926,-836.032516,-1791.089234,-1777.025394,-1900.355318,-1742.298848,2.094115911015718
570,-590.722823,17.669256,-399.285604,-221.595062,-991.199283,-679.376787,-770.436035,-842.778235,2.0935822275140543
571,-3.193803,402.941208,54.656718,130.842392,-797.309332,18.27182,-93.516752,-298.257623,2.0929521519888414
572,194.335217,155.21316,-789.40096,-337.720154,-437.419381,580.920426,414.402531,87.26299,2.0922471968324796
573,766.864236,-6.514888,-1363.458638,76.7173,947.47057,1953.569033,1661.321814,879.783603,2.0914911180891407
574,1124.393256,355.757065,-695.516316,837.154754,1610.360521,2708.217639,2075.241097,1113.304216,2.090709422314799
575,252.922276,354.029017,-321.573994,717.592209,781.250472,1526.866246,709.16038,96.824828,2.0899288186210283
576,-737.548704,148.300969,-218.631672,525.029663,-25.859577,259.514853,-643.920337,-970.654559,2.089176627962759
577,-1335.019684,-173.427079,-494.68935,-20.532883,-821.969626,-632.836541,-1412.001055,-1638.133946,2.088480163009951
578,-1255.490664,-208.155127,-624.747028,-353.095429,-1386.079675,-1137.187934,-1576.081772,-1527.613334,2.0878660929062165
579,-1196.961645,-162.883175,-474.804707,-98.657975,-1307.189724,-1492.539328,-1606.162489,-1246.092721,2.0873598078374807
580,-628.432625,-46.611223,-746.862385,-44.220521,-757.299773,-499.890721,-628.243206,-577.572108,2.08698479859295
581,-329.903605,-124.339271,-845.920063,-197.783067,-467.409822,180.757885,-102.323923,-353.051495,2.0867620661900057
582,192.625415,78.932681,-511.977741,134.654388,-68.519871,775.406492,441.59536,180.469117,2.086709576154375
583,1063.154435,420.204633,-629.035419,398.091842,612.370081,1938.055099,1640.514643,1064.98973,2.0868417712062577
584,1162.683455,686.476585,-528.093097,393.529296,670.260032,2315.703705,1779.433926,915.510343,2.087169154919872
585,22.212474,234.748537,-865.150775,-97.03325,13.149983,992.352312,280.353209,-309.969045,2.08769795742423
586,-702.258506,42.020489,-572.208453,-103.595796,-709.960066,-193.999082,-892.727508,-1004.448432,2.0884298924306033
587,-935.729486,-22.707559,-554.266131,-512.158342,-1228.070115,-916.350475,-1544.808226,-1078.927819,2.089362012847674
588,-1036.200466,25.564393,-361.323809,-418.720888,-1428.180164,-1228.701868,-1760.888943,-1260.407206,2.0904866700252525
589,-1192.671446,-92.163655,-502.381487,-716.283433,-1748.290213,-1774.053262,-1958.96966,-1521.886594,2.0917915793027717
590,-542.142426,20.108298,-382.439165,-204.845979,-892.400262,-631.404655,-867.050377,-761.365981,2.0932599920842216
591,-97.613406,21.38025,-688.496843,-342.408525,-869.510311,-111.756049,-138.131094,-224.845368,2.0948709721737497
592,13.915613,-78.347798,-797.554521,-131.971071,-247.62036,598.892558,485.788189,30.675244,2.0965997716439473
593,890.444633,81.924154,-922.6122,452.466383,929.269591,2093.541164,1844.707472,1053.195857,2.098418299129463
594,1243.973653,408.196106,-562.669878,939.903837,1675.159542,2920.189771,2270.626755,1318.71647,2.100295671198198
595,347.502673,279.468058,-142.727556,948.341291,718.049493,1671.838378,980.546038,243.237083,2.1021988354042267
596,-234.968307,340.74001,636.214766,1153.778746,155.939444,518.486984,-288.534679,-735.242305,2.1040932518199984
597,-553.439287,153.011962,161.157088,631.2162,-446.170605,-306.864409,-1075.615397,-1127.721692,2.1059436183242233
598,-806.910268,-151.716086,-434.90059,-261.346346,-1068.280653,-920.215803,-1428.696114,-1286.201079,2.1077146237239477
599,-969.381248,-207.444134,-587.958268,-616.908892,-1719.390702,-1752.567196,-1724.776831,-1418.680467,2.1093717119452413
600,-266.852228,10.827818,-726.015946,-450.471438,-1094.500751,-839.91859,-777.857548,-625.159854,2.110881840059504
601,130.676792,165.09977,-676.073624,-143.033984,-520.6108,24.730017,-77.938265,-226.639241,2.112214212836023
602,420.205812,257.371722,-716.131302,62.40347,-72.720849,576.378624,318.981018,67.881372,2.1133409768317635
603,1082.734832,354.643674,-747.18898,417.840925,682.169102,1769.02723,1479.900301,870.401984,2.114237857743086
604,1345.263852,555.915626,-512.246658,647.278379,698.059053,2231.675837,1800.819584,1112.922597,2.114884725838707
605,702.792871,600.187578,-256.304336,196.715833,49.949004,1140.324443,618.738867,260.44321,2.11526607574763
606,-343.678109,83.45953,-508.362014,141.153287,-453.161045,-48.02695,-610.34185,-742.036178,2.1153714086604145
607,-1031.149089,-245.268517,-816.419693,-431.409259,-1077.271094,-936.378343,-1483.422568,-1432.515565,2.1151955070796777
608,-994.620069,6.003435,-460.477371,-391.971805,-1330.381143,-1357.729737,-1749.503285,-1505.994952,2.1147385945816923
609,-1189.091049,-52.724613,-199.535049,-348.534351,-1936.491192,-1949.08113,-1868.584002,-1627.474339,2.114006375574856
610,-504.562029,-9.452661,-324.592727,-39.096896,-1006.601241,-693.432524,-663.664719,-774.953727,2.1130099527073027
611,-15.03301,103.819291,-567.650405,-175.659442,-653.71129,-132.783917,-139.745436,-360.433114,2.11176562232579
612,142.49601,-55.908757,-936.708083,-228.221988,-146.821339,537.864689,436.173847,-65.912501,2.1102945511595084
613,925.02503,162.363195,-794.765761,448.215466,859.068612,1994.513296,1767.09313,810.608111,2.1086223401329245
614,1227.55405,514.635147,-311.823439,1058.65292,1533.958564,2566.161903,1976.012413,569.128724,2.1067784838387187
615,385.08307,511.907099,58.118883,1108.090374,534.848515,1260.810509,577.931696,-795.350663,2.1047957366646775
616,-586.38791,18.179051,-781.938795,-350.472172,-541.261534,-75.540884,-698.149021,-1291.83005,2.1027093988096808
617,-1161.858891,-177.548997,-585.996473,-291.034717,-937.371583,-831.892278,-1442.229738,-1124.309438,2.1005565373906605
618,-1019.329871,-44.277045,-369.054151,-246.597263,-1399.481632,-1226.243671,-1484.310456,-1018.788825,2.0983751594875537
619,-1243.800851,-154.005093,-491.111829,-551.159809,-1874.591681,-1936.595065,-1889.391173,-1454.268212,2.0962033552564736
620,-437.271831,46.266859,-598.169508,-364.722355,-1154.70173,-939.946458,-803.47189,-702.7476,2.0940784301301476
621,79.257189,228.538811,-617.227186,-177.284901,-661.811779,-162.297851,-93.552607,-150.226987,2.0920360455951568
622,333.786209,264.810763,-682.284864,81.152553,-228.921828,494.350755,437.366676,191.293626,2.090109388072967
623,1127.315229,557.082716,-511.342542,499.590007,802.968123,1859.999362,1721.285959,1070.814239,2.0883283850310117
624,1035.844248,312.354668,-1052.40022,303.027462,1117.858074,2538.647968,2128.205242,1062.334851,2.0867189866158458
625,251.373268,265.62662,-769.457898,220.464916,224.748025,1183.296575,731.124525,103.855464,2.085302529846977
626,-460.097712,166.898572,-435.515576,29.90237,-600.362024,-116.054818,-553.956192,-778.623923,2.0840952007611406
627,-849.568692,81.170524,-392.573254,-293.660176,-1285.472073,-940.406212,-1402.036909,-1230.103311,2.0831076078854274
628,-1059.039672,-83.557524,-585.630932,-477.222722,-1427.582122,-1261.757605,-1483.117627,-1418.582698,2.0823444780850027
629,-1068.510652,-2.285572,-434.68861,-516.785268,-1674.69217,-1830.108999,-1665.198344,-1493.062085,2.0818044832260068
630,-341.981633,261.98638,-368.746288,-110.347814,-821.802219,-684.460392,-600.279061,-697.541472,2.0814802032718873
631,55.547387,402.258332,-292.803966,247.089641,-255.912268,80.188214,55.640222,-282.02086,2.0813582284525998
632,455.076407,517.530284,-315.861644,365.527095,48.977683,686.836821,630.559505,180.499753,2.0814194000754
633,1275.605427,653.802236,-572.919322,424.964549,828.867634,2020.485428,2014.478788,1101.020366,2.0816391864506723
634,1606.134447,907.074188,-293.977001,779.402003,1251.757585,2625.134034,2392.398071,1390.540978,2.0819881873550066
635,666.663467,686.34614,-283.034679,304.839457,365.647536,1298.782641,932.317354,332.061591,2.0824327575148307
636,-365.807514,420.618092,66.907643,526.276911,-209.462513,-32.568753,-542.763363,-773.417796,2.082935736833861
637,-955.278494,118.890044,-111.150035,252.714365,-589.572562,-611.920146,-1067.84408,-1277.897183,2.083457272569655
638,-948.749474,124.161996,-484.207713,-443.84818,-1124.682611,-1098.27154,-1200.924798,-1255.376571,2.0839557164470084
639,-911.220454,328.433949,-172.265391,-248.410726,-1141.79266,-1447.622933,-1333.005515,-1337.855958,2.0843885778310525
640,-111.691434,654.705901,-8.323069,324.026728,-454.902709,-416.974326,-264.086232,-610.335345,2.084713512615572
641,101.837586,528.977853,-423.380747,165.464182,-152.012758,99.67428,134.833051,-378.814733,2.0848893264487995
642,243.366606,320.249805,-695.438425,12.901636,39.877193,532.322887,538.752334,-45.29412,2.084876970346878
643,1170.895625,645.521757,-644.496103,356.33909,899.767144,1799.971493,1824.671617,889.226493,2.084640506651411
644,1713.424645,1037.793709,-376.553781,771.776544,1447.657095,2481.6201,2216.5909,1366.747106,2.0841480236786563
645,665.953665,858.065661,-92.611459,600.213999,639.547047,1269.268707,890.510183,141.267718,2.0833724782797343
646,-224.517315,503.337613,-159.669137,-42.348547,-642.563002,-210.082687,-480.570534,-1068.211669,2.08229244686881
647,-678.988295,138.609565,-460.726816,-547.911093,-1328.673051,-1107.43408,-1278.651251,-1457.691056,2.0808927672540762
648,-631.459275,255.881517,-262.784494,-277.473639,-1202.7831,-1300.785474,-1279.731969,-1212.170444,2.0791650557889505
649,-997.930256,147.153469,-219.842172,-351.036185,-1540.893149,-1813.136867,-1527.812686,-1679.649831,2.0771080869035483
650,-244.401236,481.425421,170.10015,323.401269,-783.003198,-707.488261,-526.893403,-999.129218,2.0747280249259608
651,121.127784,316.697373,-485.957528,-93.161277,-358.113247,-61.839654,92.02588,-433.608605,2.0720385011989193
652,781.656804,645.969325,-191.015206,404.276178,118.776704,499.808953,717.945163,391.912007,2.069060532773784
653,1573.185824,728.241277,-683.072884,371.713632,1033.666655,1860.457559,2080.864446,1379.43262,2.065822282349696
654,1618.714844,772.513229,-603.130562,619.151086,1256.556606,2460.106166,2330.783729,1304.953233,2.0623586625475134
655,599.243863,414.785181,-648.18824,277.58854,320.446557,1177.754772,941.703012,22.473845,2.058710790990843
656,-36.227117,363.057134,-12.245918,579.025994,-90.663492,79.403379,-318.377705,-797.005542,2.054925305935594
657,-621.698097,154.329086,87.696404,347.463448,-726.773541,-737.948014,-1035.458422,-1207.484929,2.0510535552726057
658,-1042.169077,-116.398962,-286.361274,-158.099098,-1136.88359,-1213.299408,-1304.53914,-1450.964316,2.0471506745562436
659,-1339.640057,-210.12701,-471.418952,-295.661643,-1388.993639,-1750.650801,-1579.619857,-2230.443704,2.043274572222065
660,-678.111037,80.144942,-827.47663,-212.224189,-644.103688,-701.002195,-702.700574,-2553.923091,2.0394848422918734
661,131.417983,689.416894,-351.534309,370.213265,28.786264,182.646412,85.218709,-1263.402478,2.0358416265758494
662,508.947002,686.688846,-476.591987,546.650719,473.676215,875.295018,902.137992,712.118134,2.0324044496292157
663,1791.476022,985.960798,-508.649665,891.088173,1440.566166,2357.943625,2426.057275,2199.638747,2.0292310504754587
664,1475.005042,638.23275,-860.707343,510.525627,1214.456117,2347.592232,2244.976558,1847.15936,2.026376235350562
665,584.534062,630.504702,-510.765021,433.963081,370.346068,993.240838,721.895841,438.679973,2.023890775445233
666,-48.936918,636.776654,-95.822699,405.400536,-714.763981,-427.110555,-652.184876,-735.799415,2.021820372828403
667,-558.407898,238.048606,-132.880377,114.83799,-1208.87403,-1012.461949,-1316.265593,-1373.278802,2.0202047164403916
668,-561.878879,234.320558,-609.938055,-481.724556,-1388.984079,-1423.813342,-1337.346311,-1299.758189,2.0190766482740856
669,-775.349859,94.59251,-564.995733,-342.287102,-1460.094128,-1825.164736,-1474.427028,-1309.237577,2.0184614576541433
670,-442.820839,-175.135538,-285.053411,397.150352,-447.204177,-576.516129,-464.507745,-1168.716964,2.018376318923913
671,-629.291819,-287.863586,-151.111089,757.587806,-88.314226,39.132478,-75.588462,-2226.196351,2.0188298849126745
672,-202.762799,110.408367,-525.168767,333.02526,3.575725,393.781084,322.330821,-1657.675738,2.019822045344725
673,1417.766221,1174.680319,-574.226445,583.462715,866.465676,1599.429691,1605.250104,925.844874,2.021343855935643
674,2590.29524,1706.952271,-170.284124,1231.900169,1720.355627,2671.078297,2487.169387,2458.365487,2.0233776403733184
675,1165.82426,793.224223,-582.341802,606.337623,595.245578,1048.726904,938.08867,1245.8861,2.0258972637785617
676,-467.64672,93.496175,-764.39948,116.775077,-392.86447,-365.624489,-597.992047,-528.593288,2.0288685726601305
677,-1053.1177,244.768127,36.542842,685.212531,-395.974519,-591.975883,-1052.072764,-1168.072675,2.032249992899165
678,-1012.58868,712.040079,1010.485164,1333.649985,-54.084568,-450.327276,-820.153482,-1202.552062,2.03599327399366
679,-1165.05966,606.312031,398.427486,737.087439,-358.194617,-1030.67867,-1074.234199,-1409.031449,2.0400443647361843
680,-396.53064,580.583983,50.369808,948.524894,270.695334,-141.030063,-107.314916,-734.510837,2.0443444027536257
681,419.998379,759.855935,106.31213,1212.962348,580.585285,525.618543,576.604367,-145.990224,2.0488307979656146
682,1046.527399,1035.127887,369.254452,1372.399802,1076.475236,1168.26715,1218.52365,699.530389,2.0534383880694977
683,1576.056419,937.399839,-93.803226,1223.837256,1465.365187,2140.915757,2234.442933,1539.051001,2.0581006426760586
684,1295.585439,478.671791,-685.860904,874.27471,1605.255138,2460.564363,2216.362216,1293.571614,2.062750891732992
685,433.114459,233.943743,-592.918582,559.712164,403.145089,807.21297,520.281499,79.092227,2.067323553402901
686,-14.356521,37.215695,-758.97626,-337.850382,-1079.96496,-911.138424,-1026.799218,-718.38716,2.0717553366184323
687,-249.827502,132.487647,-479.033938,-309.412927,-1175.075009,-1461.489817,-1671.879935,-1053.866548,2.0759863941167245
688,-327.298482,-8.2404,-968.091617,-682.975473,-1518.185058,-1793.841211,-1698.960653,-1079.345935,2.079961402844713
689,-535.769462,37.031552,-708.149295,-542.538019,-1865.295107,-2440.192604,-1940.04137,-1364.825322,2.08363055020114
690,-230.240442,83.303504,-733.206973,-96.100565,-869.405156,-1173.543997,-865.122087,-1084.30471,2.086950406604846
691,16.288578,27.575456,-985.264651,-104.663111,-349.515205,-365.895391,-224.202804,-820.784097,2.089884667307064
692,610.817598,195.847408,-993.322329,34.774343,-60.625253,109.753216,307.716479,-137.263484,2.0924047491441917
693,2005.346617,763.11936,-475.380007,971.211797,1144.264698,1674.401822,1870.635762,1437.257129,2.0944902309957723
694,2215.875637,898.391312,-345.437685,1182.649252,1449.154649,2244.050429,2051.555045,1585.777741,2.09612913000298
695,1018.404657,417.663264,-670.495363,383.086706,446.0446,955.699036,724.474328,343.298354,2.097318009044211
696,267.933677,291.935216,-416.553041,290.52416,-62.065449,-179.652358,-398.606389,-574.181033,2.0980619144818062
697,-11.537303,170.207168,-519.610719,73.961614,-579.175498,-960.003751,-1083.687106,-983.660421,2.0983741467118344
698,-86.008283,305.47912,-170.668397,298.399068,-760.285547,-1364.355145,-1283.767824,-1115.139808,2.0982758694921464
699,-278.479263,240.751072,-119.726075,203.836522,-1146.395596,-1867.706538,-1416.848541,-1254.619195,2.097795567319445
700,345.049756,205.023024,-530.783753,159.273976,-544.505645,-823.057932,-313.929258,-497.098582,2.0969683632045975
701,753.578776,406.294976,-408.841431,317.711431,-276.615694,-217.409325,247.990025,-150.57797,2.09583521199261
702,1167.107796,793.566928,8.10089,869.148885,354.274257,450.239282,716.909308,187.942643,2.0944419868319466
703,1928.636816,796.83888,-431.956788,1201.586339,1477.164208,1756.887888,1960.828591,1093.463256,2.0928384784674128
704,1885.165836,661.110832,-434.014466,1503.023793,1997.054159,2493.536495,2341.747874,1173.983868,2.09107732867048
705,926.694856,452.382785,-207.072144,1102.461247,920.94411,1136.185101,930.667157,104.504481,2.0892129202992367
706,365.223875,363.654737,-346.129822,260.898701,-728.165939,-510.166292,-387.41356,-599.974906,2.087300247175671
707,-382.247105,187.926689,-77.1875,383.336155,-944.275987,-1181.517686,-1243.494277,-1675.454293,2.085393787169994
708,-859.718085,-177.801359,-449.245178,47.77361,-867.386036,-1290.869079,-1460.574995,-2387.933681,2.083546401590134
709,-1303.189065,-277.529407,-247.302856,8.211064,-1073.496085,-1640.220472,-1428.655712,-1986.413068,2.0818082831998828
710,-850.660045,-371.257455,-66.360534,962.648518,120.393866,-460.571866,-242.736429,-500.892455,2.0802259739522055
711,-294.131025,-725.985503,-120.418212,1314.085972,803.283817,405.076741,412.182854,-111.371843,2.0788414718553914
712,649.397995,-252.713551,-532.47589,856.523426,562.173768,502.725347,713.102137,99.14877,2.077691444328508
713,2135.927014,1326.558401,-494.533568,1033.96088,1113.063719,1770.373954,2074.02142,1252.669383,2.0768065629965893
714,2894.456034,1716.830353,66.408754,1691.398334,1666.95367,2456.022561,2443.940703,1733.189996,2.076210972179427
715,1375.985054,674.102305,-195.648925,1228.835789,1087.843621,1295.671167,1109.859986,449.710608,2.0759219004008127
716,60.514074,45.374257,-685.706603,408.273243,-242.266428,-336.680226,-480.220731,-740.768779,2.0759494211519365
717,-473.956906,-53.353791,-717.764281,-141.289303,-1281.376477,-1404.03162,-1402.301448,-1416.248166,2.076296365950642
718,-714.427886,-187.081839,-987.821959,-485.851849,-1371.486526,-1606.383013,-1448.382165,-1687.727554,2.0769583895162422
719,-958.898867,3.190113,-380.879637,69.585605,-1346.596575,-2099.734407,-1731.462883,-2598.206941,2.077924183696343
720,162.630153,432.462065,-184.937315,415.023059,-621.706624,-915.0858,-482.5436,-1601.686328,2.0791758337048942
721,816.159173,548.734018,-281.994993,910.460513,494.183327,220.562807,635.375683,143.834285,2.0806893073237043
722,1543.688193,889.00597,-117.052671,1159.897968,966.073278,791.211413,1131.294966,1030.354897,2.082435065042809
723,1920.217213,599.277922,-724.110349,996.335422,1242.96323,1622.86002,1915.214249,1419.87551,2.0843787767227737
724,1712.746233,434.549874,-994.168027,846.772876,1418.853181,2119.508626,2060.133532,1165.396123,2.086482128301968
725,859.275252,304.821826,-877.225705,462.21033,558.743132,841.157233,750.052815,49.916735,2.0887037003843463
726,-23.195728,-129.906222,-1009.283383,97.647784,-229.366917,-373.19416,-474.027902,-780.562652,2.090999899260001
727,-403.666708,-157.63427,-763.341061,-31.914762,-839.476966,-1158.545554,-1151.108619,-1164.042039,2.093325920054576
728,-524.137688,-124.362318,-581.398739,149.522692,-893.587015,-1415.896947,-1226.189336,-1341.521426,2.095636721288106
729,-111.608668,550.909634,105.543582,292.960147,-1345.697064,-2082.248341,-1435.270054,-1221.000814,2.097887990153037
730,738.920352,1008.181586,184.485904,791.397601,-441.807113,-803.599734,-211.350771,-348.480201,2.1000370782895565
731,1157.449372,1138.453538,-136.571774,1017.835055,649.082838,381.048872,678.568512,138.040412,2.1020438887291704
732,1596.978391,1513.72549,561.370548,1751.272509,1391.972789,1092.697479,1251.487795,642.561024,2.1038716959711
733,2155.507411,1460.997442,910.31287,3086.709963,2809.86274,2745.346086,2708.407078,1436.081637,2.105487882818541
734,2146.036431,1117.269394,221.255192,2547.147417,2664.752691,3030.994692,2760.326361,1393.60225,2.106864579593631
735,766.565451,179.541346,-1078.802486,324.584871,474.642642,800.643299,673.245644,94.122863,2.1079791936249426
736,-127.905529,-81.186702,-1077.860164,-382.977674,-877.467407,-870.708095,-824.835073,-892.356525,2.10881481940762
737,-974.376509,-493.914749,-1065.917842,-440.54022,-1470.577456,-1590.059488,-1563.91579,-1673.835912,2.109360522517664
738,-1110.84749,-668.642797,-1287.97552,-643.102766,-1657.687504,-1869.410882,-1697.996507,-1707.315299,2.1096114931586967
739,-1035.31847,-441.370845,-962.033198,-323.665312,-1548.797553,-2285.762275,-1811.077225,-1703.794687,2.109569068070294
740,-254.78945,-73.098893,-659.090876,68.772142,-394.907602,-962.113668,-624.157942,-942.274074,2.109240622369446
741,310.73957,-1.826941,-1128.148554,52.209596,-108.017651,-319.465062,114.761341,-343.753461,2.1086393356694786
742,727.26859,292.445011,-633.206233,738.64705,240.8723,357.183545,653.680624,41.767152,2.1077838394643575
743,1528.79761,555.716963,-485.263911,1238.084505,1314.762251,1858.832151,1935.599907,874.287764,2.1066977552245616
744,1863.326629,642.988915,-603.321589,1611.521959,2252.652202,2601.480758,2373.51919,1115.808377,2.1054091348718895
745,986.855649,401.260867,-558.379267,1195.959413,1206.542153,1241.129365,1017.438473,174.32899,2.1039498172385915
746,212.384669,396.532819,-510.436945,179.396867,-445.567896,-502.222029,-633.642244,-873.150398,2.102354715731539
747,-133.086311,517.804771,25.505377,490.834321,-927.677945,-1220.573422,-1319.722961,-1388.629785,2.100661053682623
748,-478.557291,84.076723,-771.552301,-133.728225,-895.787994,-1414.924816,-1336.803678,-1497.109172,2.0989075647480835
749,-180.028271,500.348675,-185.609979,-15.290771,-1313.898043,-2032.276209,-1483.884396,-1385.588559,2.097133676206614
750,276.500749,184.620627,-919.667657,-184.853316,-532.008092,-802.627603,-192.965113,-490.067947,2.0953786930924325
751,353.029768,144.892579,-790.725335,368.584138,187.881859,-43.978996,284.95417,-391.547334,2.0936810007875057
752,676.558788,189.164531,-1084.783013,418.021592,570.77181,380.669611,661.873453,-170.026721,2.092077302998159
753,1379.087808,282.436483,-1213.840691,806.459046,1616.661761,1758.318217,1945.792736,777.493891,2.0906019109753924
754,1860.616828,700.708436,-611.898369,1615.8965,2293.551713,2448.966824,2185.712019,1148.014504,2.0892860984335195
755,1220.145848,794.980388,-163.956047,1574.333954,1603.441664,1385.61543,1035.631302,324.535117,2.088157534913883
756,107.674868,294.25234,-469.013726,766.771408,505.331615,170.264037,-139.449415,-727.94427,2.087239808371422
757,-631.796113,-104.475708,-728.071404,267.208863,-317.778434,-723.087357,-976.530132,-1389.423658,2.0865520455795252
758,-834.267093,-402.203756,-1150.129082,-422.353683,-1131.888483,-1362.43875,-1237.610849,-1395.903045,2.086108636604963
759,-887.738073,-161.931804,-656.18676,-319.916229,-1683.998532,-2105.790143,-1582.691567,-1589.382432,2.0859190671551726
760,-146.209053,144.340148,-650.244438,141.521225,-537.108581,-871.141537,-443.772284,-779.86182,2.0859878601020556
761,246.319967,129.6121,-1114.302116,313.958679,155.78137,-29.49293,283.146999,-269.341207,2.0863146249975792
762,793.848987,225.884052,-1013.359794,582.396133,945.671321,732.155676,872.066282,256.179406,2.086894211973869
763,1725.378006,480.156004,-973.417472,782.833587,1841.561272,2145.804283,2223.985565,1140.700019,2.087716964118958
764,1879.907026,975.427956,-395.47515,1082.271042,1713.451223,2255.45289,2183.904848,1159.220631,2.0887690602903297
765,673.436046,711.699908,5.467172,1328.708496,1220.341174,1278.101496,955.824131,75.741244,2.0900329384187315
766,-434.034934,452.97186,114.409494,1187.14595,281.231125,5.750103,-377.256586,-1219.738143,2.0914877877056237
767,-1235.505914,-284.756188,-884.648184,-279.416596,-1031.878924,-1225.601291,-1529.337303,-2191.217531,2.0931100967639185
768,-929.976894,-545.484236,-1411.705862,-755.979142,-1182.988973,-1537.952684,-1541.41802,-1943.696918,2.0948742437207333
769,-677.447874,-188.212284,-985.763541,-600.541688,-1743.099022,-2136.304078,-1493.498738,-1437.176305,2.0967531136123605
770,-9.918855,140.059669,-783.821219,121.895766,-545.20907,-846.655471,-324.579455,-468.655692,2.0987187280670065
771,260.610165,389.331621,-622.878897,595.333221,231.680881,-124.006864,147.339828,-933.13508,2.1007428722930155
772,517.139185,380.603573,-755.936575,586.770675,565.570832,396.641742,578.259111,-991.614467,2.1027977047638067
773,1415.668205,564.875525,-563.994253,1255.208129,1871.460783,1966.290349,2130.178394,859.906146,2.1048563357020056
774,1815.197225,823.147477,-471.051931,1063.645583,1853.350734,2772.938955,2600.097677,1874.426758,2.1068933614929444
775,1094.726245,685.419429,-668.109609,-94.916963,215.240685,1149.587562,1108.01696,819.947371,2.1088853434733914
776,262.255264,579.691381,-176.167287,103.520491,-701.869364,-169.763831,-186.063757,-333.532016,2.1108112211100445
777,-565.215716,26.963333,-768.224965,-686.042055,-1550.979413,-1024.115225,-975.144474,-1074.011403,2.112652651363374
778,-832.686696,-135.764715,-867.282643,-710.6046,-1455.089462,-1456.466618,-1254.225191,-1350.490791,2.1143942679807757
779,-772.157676,-98.492763,-1071.340321,-1077.167146,-1964.199511,-2095.818012,-1312.305909,-1322.970178,2.11602385653022
780,50.371344,263.779189,-898.397999,-29.729692,-677.30956,-993.169405,-293.386626,-535.449565,2.1175324431208806
781,416.900364,340.051141,-714.455677,1001.707762,698.580391,105.479201,535.532657,-105.928953,2.118914296908753
782,615.429383,382.323093,-863.513355,892.145216,683.470342,370.127808,732.45194,4.59166,2.1201668486014484
783,1460.958403,607.595045,-998.571034,943.58267,1200.360293,1457.776415,1874.371223,787.112273,2.121290529207035
784,1263.487423,357.866997,-1088.628712,1384.020124,2171.250244,2318.425021,2241.290506,830.632886,2.1222885351694516
785,428.016443,178.138949,-836.68639,1208.457579,1822.140196,1294.073628,943.209789,-68.846502,2.123166527753871
786,-411.454537,104.410901,-452.744068,953.895033,827.030147,131.722234,-319.870928,-992.325889,2.123932276050305
787,-665.925517,328.682854,33.198254,666.332487,-313.079902,-874.629159,-1118.951645,-1415.805276,2.1245952542192255
788,-706.396497,-3.045194,-782.859424,-63.230059,-658.189951,-1236.980553,-1132.032362,-1309.284664,2.125166204582007
789,-720.867478,132.226758,-486.917102,353.207395,-535.3,-1656.331946,-1269.11308,-1366.764051,2.1256566788414726
790,-43.338458,472.49871,-390.97478,765.644849,531.589951,-463.683339,-251.193797,-729.243438,2.1260785700909173
791,163.190562,390.770662,-834.032458,595.082303,840.479902,160.965267,393.725486,-256.722825,2.126443648328444
792,-84.280418,164.042614,-955.090136,674.519758,1048.369853,595.613874,841.644769,-43.202213,2.126763111939547
793,534.248602,56.314566,-903.147814,1119.957212,1939.259804,1889.26248,1962.564052,563.3184,2.12704716705435
794,1503.777622,486.586518,-258.205492,1699.394666,2249.149755,2366.911087,2054.483335,807.839013,2.1273046458436244
795,973.306641,415.85847,-141.26317,1477.83212,1318.039706,1236.559694,815.402618,4.359625,2.1275426737132537
796,67.835661,721.130422,351.679152,1357.269574,661.929657,174.2083,-333.678099,-982.119762,2.127766394019638
797,-899.635319,-35.597626,-1074.378527,-514.292972,-795.180392,-763.143093,-938.758816,-1428.599149,2.1279787573934126
798,-1242.106299,-194.325674,-1235.436205,-690.855518,-776.290441,-1135.494487,-1094.839533,-1463.078536,2.128180381064595
799,-1013.577279,30.946278,-426.493883,242.581937,-779.40049,-1632.84588,-1262.920251,-1499.557924,2.128369481771001
800,-346.048259,-267.78177,-1197.551561,13.019391,-420.510539,-827.197274,-283.000968,-767.037311,2.1285418839477983
801,340.48076,263.490182,-1339.609239,-13.543155,106.379413,-162.548667,213.918315,-210.516698,2.1286911029849755
802,1109.00978,1125.762134,-729.666917,521.894299,546.269364,328.09994,682.837598,292.003914,2.1288085014468487
803,1679.5388,974.034087,-1169.724595,557.331753,1202.159315,1812.748546,2165.756881,1189.524527,2.1288835143180806
804,1003.06782,197.306039,-1187.782273,671.769207,1202.049266,2324.397153,2363.676164,992.04514,2.12890393761652
805,-213.40316,-234.422009,-1126.839951,156.206661,306.939217,886.045759,847.595447,-181.434247,2.1288562731339518
806,-1315.87414,-75.150057,-502.897629,466.644116,-272.170832,-420.305634,-579.48527,-1371.913635,2.128726120667255
807,-2376.34512,-1002.878105,-1172.955307,330.08157,86.719119,-816.657028,-1217.565987,-2138.393022,2.128498607915546
808,-2357.816101,-1132.606153,-927.012985,674.519024,362.60907,-914.008421,-1267.646704,-2646.872409,2.128158847269329
809,-1003.287081,-329.334201,-947.070663,48.956478,-894.500979,-1929.359814,-1623.727422,-2679.351797,2.1276924080256068
810,674.241939,610.937751,-714.128342,415.393932,-188.611028,-684.711208,-369.808139,-958.831184,2.1270857921422754
811,821.770959,340.209703,-811.18602,651.831386,534.278923,293.937399,564.111144,449.689429,2.126326901503627
812,1266.299979,389.481655,-1131.243698,506.26884,604.168874,628.586005,1062.030427,1124.210042,2.125405484807604
813,1825.828999,510.753607,-1467.301376,360.706295,977.058825,1629.234612,2056.94971,1535.730654,2.1243135525996815
814,1804.358018,602.025559,-1209.359054,728.143749,1315.948776,2165.883219,2198.868993,1358.251267,2.1230457496569355
815,912.887038,539.297511,-620.416732,1047.581203,1061.838727,1168.531825,961.788276,380.77188,2.1215996748522814
816,-200.583942,118.569463,-958.47441,250.018657,18.728679,-117.819568,-237.292441,-549.707508,2.119976139780948
817,-1157.054922,-294.158585,-948.532088,120.456111,-441.38137,-887.170962,-1021.373158,-1265.186895,2.1181793587822972
818,-955.525902,-142.886633,-876.589766,-119.106435,-776.491419,-1347.522355,-1239.453875,-1443.666282,2.1162170645093354
819,-588.996882,-239.61468,-1036.647444,-350.668981,-1145.601468,-1860.873749,-1378.534592,-1455.145669,2.1141005448516124
820,264.532138,194.657272,-435.705122,364.768474,-261.711517,-701.225142,-366.61531,-620.625057,2.111844598768
821,484.061157,522.929224,256.2372,1476.205928,677.178434,245.423465,209.303973,-361.104444,2.109467410395691
822,793.590177,388.201176,-316.820478,1454.643382,533.068385,551.072071,744.223256,60.416169,2.1069903426313217
823,1658.119197,626.473128,-202.878156,1687.080836,1694.958336,1990.720678,2127.142539,1034.936781,2.1044376531898856
824,1787.648217,653.74508,-517.935835,1425.51829,2247.848287,2613.369284,2368.061822,1136.457394,2.1018361378982977
825,698.177237,45.017032,-1425.993513,34.955744,673.738238,1073.017891,925.981105,61.978007,2.0992147076357313
826,-183.293743,-274.711016,-1501.051191,-473.606802,-490.371811,-409.333503,-375.099612,-858.50138,2.0966039068570947
827,-898.764724,-595.439064,-1473.108869,-414.169347,-798.48186,-1119.684896,-1227.180329,-1535.980768,2.094035382997084
828,-968.235704,-468.167112,-1090.166547,-173.731893,-979.591909,-1470.036289,-1372.261046,-1679.460155,2.0915413172213637
829,-925.706684,-481.89516,-1261.224225,-604.294439,-1375.701958,-1976.387683,-1432.341763,-1633.939542,2.089153827943939
830,-66.177664,-124.623208,-1119.281903,-191.856985,-637.812007,-960.739076,-411.422481,-770.41893,2.086904359245617
831,279.351356,-74.351256,-1147.339581,55.580469,-245.922056,-177.09047,277.496802,-280.898317,2.0848230667923975
832,683.880376,91.920696,-1062.397259,126.017923,154.967896,445.558137,873.416085,119.622296,2.0829382140547072
833,1620.409395,371.192648,-1008.454937,494.455377,1353.857847,1900.206744,2111.335368,1091.142909,2.0812755915638776
834,1608.938415,308.4646,-1081.512615,375.892832,1444.747798,2340.85535,2321.254651,1183.663521,2.0798579716118977
835,533.467435,4.736552,-1002.570293,396.330286,689.637749,965.503957,854.173934,81.184134,2.078704610210418
836,-449.003545,-209.991495,-482.627971,638.76774,21.5277,-273.847437,-500.906783,-944.295253,2.0778308072866767
837,-774.474525,-199.719543,-382.68565,305.205194,-335.582349,-933.19883,-1225.9875,-1387.774641,2.077247535023858
838,-841.945505,-483.447591,-990.743328,-57.357352,-426.692398,-1326.550224,-1365.068217,-1376.254028,2.076961142972368
839,-941.416485,-519.175639,-902.801006,-89.919898,-708.802447,-1799.901617,-1402.148934,-1412.733415,2.0769731470918256
840,-209.887466,-257.903687,-759.858684,275.517556,57.087504,-659.25301,-300.229652,-649.212802,2.0772801082600765
841,207.641554,-116.631735,-665.916362,612.955011,763.977455,240.395596,425.689631,-212.69219,2.077873604037448
842,587.170574,36.640217,-834.97404,338.392465,496.867406,473.044203,854.608914,162.828423,2.0787402956364076
843,1502.699594,642.912169,181.968282,1896.829919,1915.757357,2033.692809,2108.528197,1006.349036,2.079862090155183
844,1562.228614,167.184121,-973.089396,875.267373,1695.647308,2377.341416,2262.44748,1145.869648,2.081216396226292
845,569.757634,175.456073,-664.147074,550.704827,1003.537259,1154.990023,936.366763,-27.609739,2.082776469345246
846,-722.713347,145.728025,-418.204752,401.142281,152.42721,-176.361371,-454.713954,-1111.089126,2.084511841318602
847,-995.184327,-434.000023,-1032.26243,-389.420265,-452.682839,-1009.712764,-1145.794671,-1419.568513,2.0863888265405697
848,-648.655307,-702.728071,-1176.320108,-415.98281,-684.792887,-1453.064158,-1311.875388,-1266.047901,2.088371096208329
849,-629.126287,-482.456119,-1157.377786,-586.545356,-753.902936,-1962.415551,-1336.956105,-1215.527288,2.090420310150415
850,-2.597267,-180.184167,-1130.435464,-273.107902,-331.012985,-959.766945,-319.036823,-495.006675,2.092496794699266
851,143.931753,-341.912215,-1020.493143,-19.670448,52.876966,-149.118338,289.88246,-187.486063,2.0945602540137753
852,400.460772,-367.640262,-1120.550821,-219.232994,-165.233083,173.530269,707.801743,88.03455,2.0965705014718776
853,1255.989792,62.63169,-1407.608499,-310.79554,723.656868,1445.178875,1967.721026,901.555163,2.098488197223621
854,1424.518812,189.903642,-1380.666177,361.641914,1591.546819,2329.827482,2404.640309,1126.075776,2.1002755777339184
855,323.047832,-241.824406,-1065.723855,424.079369,982.43677,934.476088,868.559592,-82.403612,2.101897163158104
856,-582.423148,-51.552454,-301.781533,791.516823,526.326721,-187.875305,-412.521125,-1205.882999,2.103320428684118
857,-738.894128,304.719498,-408.839211,721.954277,102.216672,-733.226699,-1008.601842,-1617.362386,2.10451642653884
858,-473.365108,315.99145,-466.896889,369.391731,-315.893377,-1197.578092,-988.682559,-1139.841774,2.105460346183711
859,-815.836089,-189.736598,-1120.954567,-688.170815,-1508.003426,-2149.929485,-1297.763276,-1231.321161,2.106132001302166
860,-124.307069,-254.464646,-1531.012245,-748.733361,-854.113475,-1116.280879,-272.843994,-570.800548,2.106516233489454
861,266.221951,-164.192694,-1584.069923,-477.295907,97.776476,-190.632272,433.075289,-271.279935,2.106603224070512
862,594.750971,172.079258,-1224.127601,76.141548,648.666427,355.016334,872.994572,46.240677,2.1063887071659813
863,1360.279991,485.35121,-1124.185279,639.579002,1524.556379,1706.664941,2054.913855,802.76129,2.105874078968744
864,2000.809011,1064.623162,-686.242958,1426.016456,2273.44633,2219.313548,2268.833138,1057.281903,2.105066400149181
865,1337.33803,940.895114,-340.300636,1120.45391,1405.336281,1056.962154,1160.752421,494.802515,2.103978290339838
866,24.86705,153.167066,-797.358314,314.891364,156.226232,-364.389239,-232.328296,-582.676872,2.102627715720772
867,-882.60393,-282.560982,-788.415992,103.328818,-478.883817,-1156.740633,-1222.409013,-1441.156259,2.101037672796012
868,-955.07491,-429.289029,-1183.47367,-520.233728,-1064.993866,-1600.092026,-1228.48973,-1385.635646,2.099235773479547
869,-890.54589,-451.017077,-1597.531348,-1000.796273,-1142.103915,-1956.44342,-1175.570447,-1346.115034,2.0972537385567747
870,-252.01687,-103.745125,-1039.589026,-5.358819,118.786036,-694.794813,-182.651165,-790.594421,2.095126808416542
871,-144.487851,-101.473173,-915.646704,584.078635,919.675987,89.853794,298.268118,-1205.073808,2.0928930816237994
872,183.041169,-23.201221,-1080.704382,701.516089,1149.565938,541.5024,755.187401,-867.553196,2.090592793390349
873,1013.570189,11.070731,-1807.76206,182.953543,1397.455889,1625.151007,2051.106684,781.967417,2.0882675472713133
874,1594.099209,448.342683,-1339.819738,655.390997,1993.34584,2268.799613,2312.025967,1572.48803,2.0859595144418974
875,860.628229,389.614635,-824.877416,721.828451,1195.235791,1073.44822,1081.94525,669.008643,2.083710615671387
876,-34.842751,104.886587,-924.935094,220.265906,478.125742,-132.903174,-137.135467,-457.470745,2.0815617015924714
877,-586.313731,-104.841461,-996.992772,-172.29664,-225.984307,-921.254567,-900.216184,-1051.950132,2.079551747052512
878,-618.784712,-45.569509,-827.050451,-119.859186,-480.094356,-1429.60596,-1236.296901,-1231.429519,2.0777170752232452
879,-700.255692,-15.297557,-892.108129,-273.421732,-706.204404,-2004.957354,-1376.377618,-1380.908907,2.076090626735983
880,-244.726672,26.974395,-884.165807,125.015722,206.685547,-684.308747,-140.458336,-624.388294,2.0747012884056133
881,-229.197652,-386.753653,-1661.223485,-233.546824,491.575498,-45.660141,357.460947,-400.867681,2.0735732951189814
882,300.331368,-39.481701,-1517.281163,-27.10937,809.465449,408.988466,785.38023,-22.347068,2.072725717207157
883,1140.860388,243.790251,-1229.338841,557.328085,1735.3554,1764.637073,1995.299513,859.173544,2.072172044117417
884,1405.389407,508.062203,-725.396519,1056.765539,2144.245351,2360.285679,2238.218796,1027.694157,2.0719198734747404
885,842.918427,543.334156,-631.454197,562.202993,956.135302,908.934286,782.138079,93.21477,2.0719707127037768
886,105.447447,271.606108,-923.511875,-59.359553,129.025253,-411.417108,-523.942638,-680.264618,2.072319898304035
887,-660.023533,-258.12194,-1370.569553,-415.922099,-170.084796,-1044.768501,-1163.023355,-1133.744005,2.072956635670131
888,-932.494513,-242.849988,-1040.627231,-402.484645,-547.194845,-1475.119895,-1311.104072,-1328.223392,2.0738641600646948
889,-1001.965493,-147.578036,-903.684909,-226.047191,-569.304894,-1796.471288,-1283.184789,-1362.702779,2.075020017025365
890,-588.436474,-3.306084,-858.742587,135.390264,610.585057,-419.822681,-91.265507,-703.182167,2.076396458162085
891,-895.907454,69.965868,-261.800266,897.827718,1328.475008,443.825925,467.653776,-699.661554,2.077960946020304
892,-700.378434,257.23782,-251.857944,1240.265172,2203.364959,1385.474532,1318.573059,-588.140941,2.0796767594932186
893,817.150586,635.509772,-84.915622,2068.702626,3225.25491,2924.123138,2824.492342,600.379671,2.0815036892046233
894,921.679606,700.781724,738.0267,2831.14008,3645.144862,3717.771745,3350.411625,891.900284,2.0833988103944305
895,-903.791374,-14.946324,232.969022,2067.577534,3242.034813,2767.420351,2095.330908,-392.579103,2.0853173191604806
896,-1717.262354,-933.674372,-907.088656,771.014989,1954.924764,1081.068958,508.250191,-1209.05849,2.087213416478761
897,-1229.733335,-700.40242,-947.146334,220.452443,494.814715,-507.282435,-683.830526,-1330.537878,2.0890412232718245
898,-991.204315,-613.130468,-1435.204012,-502.110103,-158.295334,-1304.633829,-1130.911243,-1245.017265,2.0907557089496582
899,-578.675295,-439.858516,-1656.26169,-851.672649,-857.405383,-2187.985222,-1464.99196,-1097.496652,2.09231361533114
900,580.853725,38.413436,-1734.319368,-884.235195,-460.515432,-1352.336616,-552.072678,-237.97604,2.093674357684342
901,1052.382745,194.685389,-1799.377046,-942.797741,-340.625481,-809.688009,-88.153395,118.544573,2.0948008848109243
902,1105.911765,214.957341,-1654.434724,-741.360287,-138.73553,-284.039402,452.765888,275.065186,2.095660480647555
903,1678.440784,386.229293,-1395.492402,-172.922832,959.154421,1252.609204,1824.685171,1053.585799,2.09622549076263
904,1372.969804,100.501245,-1478.55008,73.514622,1563.044372,1919.257811,1959.604454,965.106411,2.096473958379336
905,335.498824,-212.226803,-1622.607759,-357.047924,762.934323,660.906417,661.523737,54.627024,2.0963901561389324
906,-967.972156,-656.954851,-1376.665437,-399.61047,106.824274,-391.444976,-477.55698,-1018.852363,2.095965001706518
907,-2346.443136,-1407.682899,-1658.723115,-393.173016,10.714225,-666.79637,-812.637697,-2084.331751,2.095196347484157
908,-2895.914116,-1527.410947,-1228.780793,338.264438,570.604176,-207.147763,-282.718414,-2411.811138,2.0940891370951866
909,-3239.385097,-1497.138995,-701.838471,855.701892,828.494127,-151.499156,97.200869,-2410.290525,2.092655423894974
910,-2771.856077,-1641.867043,-978.896149,1158.139347,2179.384079,1356.14945,1419.120151,-1458.769912,2.09091424949847
911,-1653.327057,-1328.595091,-705.953827,1743.576801,2575.27403,1772.798057,1777.039434,-571.2493,2.0888913831404285
912,-132.798037,-1489.323139,-2073.011505,638.014255,1925.163981,1532.446663,1832.958717,313.271313,2.086618925543619
913,880.730983,-1593.051187,-2575.069183,570.451709,2327.053932,2167.09527,2326.878,1091.791926,2.0841347838049873
914,1336.260003,-1377.779235,-2502.126861,326.889163,2215.943883,2295.743877,2179.797283,1338.312538,2.0814820265596383
915,1004.789023,-1234.507283,-2380.184539,-528.673383,849.833834,842.392483,896.716566,707.833151,2.0787081312881823
916,549.318042,-400.235331,-1456.242217,-497.235929,-73.276215,-582.95891,-577.364151,-338.646236,2.0758641380362772
917,274.847062,384.036622,-448.299895,-499.798474,-876.386264,-1663.310304,-1533.444868,-1036.125623,2.073003725960944
918,266.376082,612.308574,-659.357573,-987.36102,-850.496313,-1889.661697,-1577.525585,-996.605011,2.0701822309552234
919,204.905102,837.580526,-571.415252,-950.923566,-1244.606362,-2422.013091,-1652.606302,-1004.084398,2.067455624085152
920,727.434122,1083.852478,-575.47293,-352.486112,-468.716411,-1274.364484,-534.687019,-300.563785,2.06487947166166
921,1195.963142,1049.12443,-745.530608,-352.048658,66.17354,-430.715877,169.232263,208.956827,2.062507898433026
922,1432.492161,854.396382,-1274.588286,-780.611204,264.063491,27.932729,570.151546,546.47744,2.0603925755978403
923,2016.021181,1095.668334,-900.645964,49.82625,1276.953442,1459.581336,1857.070829,1188.998053,2.058581755090019
924,1959.550201,1012.940286,-1185.703642,3.263705,1795.843393,2125.229942,2099.990112,1230.518666,2.057119370872224
925,923.079221,734.212238,-913.76132,-4.298841,1029.733344,853.878549,802.909395,247.039278,2.0560442267980967
926,-223.391759,325.48419,-570.818998,-7.861387,443.623296,-122.472845,-183.171322,-665.440109,2.0553892889832843
927,-970.862739,-31.243858,-484.876676,-124.423933,4.513247,-697.824238,-827.252039,-1229.919496,2.055181098586785
928,-1018.333719,50.028094,-431.934354,140.013521,183.403198,-866.175631,-847.332756,-1192.398884,2.0554393184841873
929,-1455.8047,-139.699954,-655.992032,-20.549025,-53.706851,-1313.527025,-899.413473,-1389.878271,2.0561764245587497
930,-1127.27568,-166.428002,-855.04971,43.888429,425.1831,-364.878418,-5.49419,-881.357658,2.057397549299396
931,-635.74666,-227.15605,-1251.107388,-121.674116,511.073051,-13.229812,273.425092,-749.837045,2.059100482138557
932,269.78236,95.115902,-1213.165067,72.763338,1023.963002,589.418795,850.344375,-97.316433,2.061275827555747
933,2204.31138,903.387854,-1126.222745,270.200792,1675.852953,1883.067402,2414.263658,1948.20418,2.063907318488217
934,2474.8404,1039.659807,-1253.280423,422.638246,1999.742904,2327.716008,2457.182941,2143.724793,2.0669722791048004
935,1182.369419,558.931759,-1371.338101,47.0757,1170.632855,1051.364615,960.102224,733.245405,2.0704422275916747
936,45.898439,77.203711,-1266.395779,-229.486846,387.522806,-88.986779,-125.978493,-278.233982,2.0742836063478864
937,-419.572541,-55.524337,-1036.453457,-381.049392,-217.587243,-856.338172,-893.05921,-782.713369,2.078458623970856
938,-415.043521,-39.252385,-799.511135,-354.611937,-750.697292,-1379.689566,-1056.139927,-852.192756,2.0829261907008734
939,-600.514501,-184.980433,-1233.568813,-774.174483,-1014.807341,-1868.040959,-1108.220644,-948.672144,2.0876429266564855
940,80.014519,393.291519,-787.626491,-166.737029,66.08261,-668.392352,-84.301361,-238.151531,2.0925642202902255
941,410.543538,479.563471,-724.684169,-52.299575,307.972562,75.256254,539.617921,109.369082,2.0976453130781385
942,493.072558,461.835423,-968.741847,-244.862121,586.862513,525.904861,885.537204,-322.110306,2.102842385568473
943,914.601578,392.107375,-1444.799525,13.575333,1611.752464,1767.553467,1975.456487,127.410307,2.108113619584897
944,1110.130598,741.379327,-936.857203,408.012787,1824.642415,2222.202074,2101.37577,715.93092,2.113420211625389
945,-15.340382,324.651279,-520.914881,461.450242,1315.532366,1226.85068,745.295053,-897.548467,2.118727313324144
946,-1181.811362,-266.076769,-413.97256,564.887696,972.422317,282.499287,-374.785664,-2686.027855,2.1240048762412593
947,-1797.282342,-842.804817,-1257.030238,-178.67485,121.312268,-551.852106,-953.866381,-2134.507242,2.1292283801907423
948,-1037.753323,-545.532865,-1109.087916,-227.237396,-120.797781,-763.2035,-631.947098,-253.986629,2.134379426775306
949,-701.224303,-411.260913,-995.145594,-118.799942,-447.90783,-1435.554893,-844.027815,108.533983,2.1394461827171822
950,-903.695283,-880.98896,-1636.203272,-312.362488,126.982121,-532.906287,29.891468,-32.945404,2.144423660896651
951,-369.166263,-636.717008,-1391.26095,129.074966,891.872072,387.74232,729.81075,191.575209,2.14931383066196
952,168.362757,-348.445056,-884.318628,686.512421,1321.762023,882.390927,1146.730033,486.095822,2.1541255528745076
953,835.891777,-190.173104,-1424.376306,339.949875,1758.651974,2020.039533,2310.649316,790.616434,2.158874339212757
954,873.420796,560.098848,-1099.433984,416.387329,1785.541925,2286.68814,2145.568599,-41.862953,2.163581939383288
955,57.949816,769.3708,-642.491662,276.824783,1035.431876,925.336746,608.487882,-1087.34234,2.168275763980296
956,-664.521164,380.642752,-466.54934,-11.737763,285.321827,-308.014647,-522.592835,-1045.821728,2.1729881546976775
957,-691.992144,176.914704,-409.607018,-91.300309,46.211779,-526.366041,-583.673552,-404.301115,2.1777555173340635
958,-851.463124,-131.813344,-880.664696,-462.862855,-353.89827,-1023.717434,-780.754269,-454.780502,2.1826173364483874
959,-1497.934104,-256.541392,-670.722375,-383.4254,-574.008319,-1667.068827,-1073.834986,-1179.259889,2.1876150935359227
960,-1495.405085,-347.26944,-599.780053,132.012054,425.881632,-228.420221,131.084297,-990.739277,2.1927911131250486
961,-1403.876065,-341.997488,-46.837731,1311.449508,1882.771583,1322.228386,1274.003579,-756.218664,2.1981873631769435
962,-804.347045,-214.725536,148.104591,1704.886962,2637.661534,2337.876992,2339.922862,194.301949,2.2038442375502973
963,-226.818025,-329.453584,92.046913,1967.324416,3556.551485,3799.525599,3839.842145,1565.822561,2.2097993490314036
964,-19.289005,-334.181632,-148.010765,1764.76187,3388.441436,3678.174206,3248.761428,1079.343174,2.2160863615024833
965,431.240015,365.09032,121.931557,1337.199324,2116.331387,2070.822812,1582.680711,381.863787,2.222733889219628
966,104.769035,878.362273,-281.126121,490.636779,1094.221338,650.471419,351.599994,-234.6156,2.2297644899045874
967,-381.701946,892.634225,-80.183799,546.074233,514.111289,-177.879975,-474.480723,-1394.094988,2.2371937764465195
968,-574.172926,370.906177,304.758523,926.511687,418.00124,-540.231368,-770.56144,-1653.574375,2.2450296695014593
969,-568.643906,-190.821871,-44.299155,197.949141,-510.108809,-1582.582762,-1217.642157,-1005.053762,2.253271810224343
970,570.885114,-325.549919,-1392.356833,-768.613405,-604.218858,-1009.934155,-337.722874,457.46685,2.261911148840439
971,1221.414134,146.722033,-1838.414511,-1217.175951,-686.328907,-730.285548,43.196408,939.987463,2.2709297208414205
972,1098.943154,153.993985,-1879.472189,-1260.738497,-403.438955,-321.636942,376.115691,732.508076,2.2803006183675745
973,1708.472173,507.265937,-921.529868,144.698958,1196.450996,1349.011665,1613.034974,1207.028689,2.28998815991125
974,1884.001193,565.537889,-1056.587546,279.136412,1433.340947,1820.660271,1791.954257,1313.549301,2.299948256952243
975,1135.530213,539.809841,-761.645224,92.573866,446.230898,575.308878,568.87354,404.069914,2.3101289716208644
976,-123.940767,178.081793,-810.702902,-481.98868,-416.879151,-562.042516,-614.207177,-737.409473,2.320471255086436
977,-917.411747,20.353745,-974.76058,-798.551226,-632.9892,-1155.393909,-1168.287894,-1302.888861,2.3309098521927565
978,-1344.882727,-338.374303,-941.818258,-819.113772,-1110.099249,-1748.745302,-1471.368611,-1566.368248,2.341374354007307
979,-1070.353708,-874.102351,-1111.875936,-1039.676318,-1189.209298,-2149.096696,-1498.449328,-1375.847635,2.351790376509524
980,-57.824688,-386.830399,-1137.933614,-694.238863,-436.319347,-961.448089,-261.530045,-328.327022,2.362080840697207
981,337.704332,-138.558447,-1200.991292,-561.801409,-244.429396,-382.799483,267.389237,-6.80641,2.3721673270090013
982,529.233352,67.713505,-1116.04897,-143.363955,193.460555,121.849124,629.30852,-241.285797,2.3819714752010634
983,1051.762372,123.985458,-1115.106648,333.073499,1433.350506,1685.497731,1856.227803,93.234816,2.3914163997186386
984,886.291392,-205.74259,-1525.164326,270.510953,1732.240457,2252.146337,2171.147086,659.755428,2.400428090193396
985,196.820412,-326.470638,-1299.222004,-68.051593,891.130408,990.794944,871.066369,460.276041,2.4089367669836697
986,-436.650569,-368.198686,-972.279683,-424.614139,-218.979641,-437.55645,-510.014348,-405.203346,2.4168781626490223
987,-1272.121549,-847.926734,-1463.337361,-959.176684,-727.08969,-1297.907843,-1416.095065,-1397.682733,2.4241947018882564
988,-1314.592529,-470.654782,-811.395039,-605.73923,-1012.199738,-1741.259237,-1737.175782,-1861.162121,2.4308365547307993
989,-1148.063509,-248.38283,-508.452717,-475.301776,-1175.309787,-2119.61063,-1678.256499,-1752.641508,2.4367625406004048
990,-455.534489,-306.110878,-947.510395,-394.864322,-404.419836,-835.962023,-317.337216,-630.120895,2.44194086419925
991,40.994531,-219.838926,-1342.568073,-360.426868,221.470115,-82.313417,315.582066,129.399717,2.4463496679103565
992,2.52355,-121.566974,-1243.625751,-86.989414,652.360066,361.33519,650.501349,138.92033,2.4499773894978576
993,311.05257,-4.295022,-1092.683429,454.44804,1560.250017,1754.983796,1999.420632,711.440943,2.4528229182018144
994,369.58159,-161.02307,-636.741107,1005.885495,1817.139968,2374.632403,2178.339915,850.961556,2.454895546776128
995,239.11061,-469.751118,-1228.798785,-120.677051,719.029919,861.281009,707.259198,137.482168,2.4562147215012384
996,-337.36037,-976.479166,-1412.856463,-425.239597,-134.08013,-491.070384,-523.821519,-848.997219,2.4568095966142747
997,-1115.83135,-1070.207214,-1288.914141,-478.802143,-434.190179,-1099.421777,-1147.902236,-1444.476606,2.4567184038373053
998,-1365.302331,-978.935262,-1047.971819,-233.364689,-74.300228,-1200.773171,-1213.982953,-1437.955994,2.455987651653401
999,-1456.773311,-930.663309,-1040.029497,-444.927235,-816.410277,-1927.124564,-1317.06367,-1368.435381,2.4546711725913952
1000,-583.244291,-556.391357,-1024.087176,-271.489781,-117.520326,-916.475958,-315.144387,-572.914768,2.4528290399536674
1001,52.284729,-263.119405,-1019.144854,23.947674,462.369625,-169.827351,337.774895,-131.394155,2.4505263780879485
1002,594.813749,-25.847453,-981.202532,9.385128,708.259576,340.821256,782.694178,298.126457,2.4478320924074293
1003,1332.342769,18.424499,-932.26021,582.822582,1369.149528,1585.469862,2086.613461,1148.64707,2.4448175468603575
1004,1172.871789,-247.303549,-1152.317888,413.260036,1823.039479,2231.118469,2269.532744,1148.167683,2.4415552174122674
1005,16.400808,-709.031597,-1054.375566,443.69749,1479.92943,1037.767075,833.452027,33.688295,2.4381173503174187
1006,-854.070172,-972.759645,-1046.433244,20.134944,406.819381,-277.584318,-374.62869,-909.791092,2.434574653522339
1007,-1358.541152,-1264.487693,-1402.490922,-467.427602,-147.290668,-907.935712,-1009.709407,-1387.270479,2.4309950484800376
1008,-1380.012132,-1179.215741,-1257.5486,-329.990147,-299.400717,-1301.287105,-1155.790124,-1424.749866,2.4274425079892743
1009,-1275.483112,-995.943789,-1211.606278,-789.552693,-818.510766,-1960.638498,-1292.870841,-1400.229254,2.4239760034535296
1010,-562.954092,-510.671837,-1157.663956,-594.115239,-177.620815,-982.989892,-352.951558,-822.708641,2.4206485822356787
1011,-90.425073,33.600115,-690.721634,19.322215,265.269136,-252.341285,232.967724,-499.188028,2.4175065926344037
1012,361.103947,115.872067,-996.779312,-46.240331,758.159087,399.307321,896.887007,149.332584,2.4145890705039736
1013,1389.632967,436.144019,-851.83699,390.197123,1710.049038,1737.955928,2124.80629,1284.853197,2.4119272977642408
1014,570.161987,93.415971,-672.894669,835.634577,2153.938989,2128.604534,1858.725573,-16.62619,2.409544539091897
1015,-633.308993,-361.312076,-718.952347,717.072032,1607.82894,1212.253141,817.644856,-1075.105577,2.407455959039678
1016,-1543.779973,-1104.040124,-1183.010025,199.509486,878.718891,339.901748,-28.435861,-983.584965,2.405668717790733
1017,-1499.250954,-1116.768172,-874.067703,391.94694,478.608842,-202.449646,-431.516578,-538.064352,2.404182239812956
1018,-2082.721934,-1692.49622,-1182.125381,-90.615606,-0.501207,-829.801039,-722.597295,-959.543739,2.4029886459214587
1019,-2022.192914,-1689.224268,-1236.183059,-227.178152,-288.611255,-1499.152433,-981.678012,-1231.023127,2.4020733357697877
1020,-201.663894,-406.952316,-749.240737,-121.740698,309.278696,-521.503826,-89.758729,-267.502514,2.4014157046478903
1021,701.865126,550.319636,-180.298415,357.696756,787.168647,128.144781,377.160554,177.018099,2.400989975734101
1022,805.394146,170.591588,-872.356093,34.134211,991.058598,614.793387,965.079836,475.538711,2.4007661266859985
1023,1229.923166,26.86354,-1224.413771,28.571665,1840.948549,2066.441994,2349.999119,1263.059324,2.4007108877056003
1024,979.452185,184.135492,-912.471449,173.009119,1757.8385,2298.0906,2115.918402,1002.579937,2.4007887870100864
1025,465.981205,713.407444,126.470873,391.446573,984.728451,1097.739207,778.837685,152.10055,2.4009632189989225
1026,-405.489775,207.679396,-435.586805,-477.115973,345.618402,-16.612187,-309.243032,-691.378838,2.4011975103373135
1027,-636.960755,131.951348,-567.644484,-291.678519,-75.491647,-920.96358,-1205.323749,-1115.858225,2.401455959666381
1028,-730.431735,-17.7767,-657.702162,-557.241065,-587.601696,-1526.314973,-1429.404466,-1228.337612,2.4017048276815003
1029,-775.902715,29.495252,-703.75984,-737.80361,-821.711745,-1967.666367,-1401.485183,-1237.817,2.4019132558586267
1030,-66.373696,272.767204,-509.817518,-69.366156,7.178206,-700.01776,-242.5659,-421.296387,2.402054094109548
1031,110.155324,115.039156,-806.875196,-50.928702,469.068157,87.630846,354.353383,-151.775774,2.4021046200563174
1032,478.684344,299.311109,-676.932874,173.508752,749.958108,551.279453,743.272665,157.744839,2.4020471353696515
1033,875.213364,126.583061,-1083.990552,136.946206,1393.848059,1779.92806,1946.191948,877.265451,2.4018694276458428
1034,864.742384,34.855013,-1192.04823,380.38366,2006.73801,2555.576666,2262.111231,1097.786064,2.4015650895267946
1035,238.271404,8.126965,-838.105908,231.821114,1184.627962,1190.225273,894.030514,153.306677,2.401133690120014
1036,-749.199576,-402.601083,-1066.163586,-335.741431,344.517913,40.873879,-260.050203,-883.172711,2.4005807971706044
1037,-1288.670557,-555.329131,-1099.221264,-533.303977,-55.592136,-606.477514,-1007.13092,-1530.652098,2.3999178517970385
