ch_0	ch_1	ch_2	ch_3	ch_4	ch_5	ch_6	ch_7	ch_8	ch_9	ch_10	ch_11	ch_12	ch_13	ch_14	ch_15	ch_16	ch_17	ch_18	ch_19	ch_20	ch_21	ch_22	ch_23	ch_24	ch_25	ch_26	timestamp	marker	ch_29	ch_30	ch_31	ch_32	ch_33	ch_34	ch_35	ch_36	ch_37	ch_38	MarkerColumn	GestureLabel	CueLabel	SampleNumber	CollectionDate
-68897.47499999999	-55746.405	-105051.59999999999	-18695.475	0.0	0.0	0.0	0.0	0.0	0.0	0.0	0.0	0.0	0.0	0.0	0.0	0.0	0.0	146.13793103448276	0.0	0.035583405	0.009216285	1.015927575	3.17408	0.71722	-0.8087799999999999	3309352.0	1776545009.273772	5.0	1.0	-1.0	-1.0	-1.0	-1.0	-1.0	-1.0	-1.0	-1.0	0.0	marker	peace	Peace	29	0418
-68924.06999999999	-55748.88	-105080.22	-18739.44	0.0	0.0	0.0	0.0	0.0	0.0	0.0	0.0	0.0	0.0	0.0	0.0	0.0	0.0	146.13793103448276	0.0	0.035583405	0.009216285	1.015927575	3.17408	0.71722	-0.8087799999999999	3309353.0	1776545009.273775	0.0	1.0	-1.0	-1.0	-1.0	-1.0	-1.0	-1.0	-1.0	-1.0	0.0	marker	peace	Peace	29	0418
-68934.51	-55756.17	-105086.655	-18731.07	0.0	0.0	0.0	0.0	0.0	0.0	0.0	0.0	0.0	0.0	0.0	0.0	0.0	0.0	146.13793103448276	0.0	0.035583405	0.009216285	1.015927575	3.17408	0.71722	-0.8087799999999999	3309354.0	1776545009.277822	0.0	1.0	-1.0	-1.0	-1.0	-1.0	-1.0	-1.0	-1.0	-1.0	0.0	marker	peace	Peace	29	0418
-68901.885	-55757.564999999995	-105067.575	-18691.469999999998	0.0	0.0	0.0	0.0	0.0	0.0	0.0	0.0	0.0	0.0	0.0	0.0	0.0	0.0	146.13793103448276	0.0	0.035583405	0.009216285	1.015927575	3.17408	0.71722	-0.8087799999999999	3309355.0	1776545009.277837	0.0	1.0	-1.0	-1.0	-1.0	-1.0	-1.0	-1.0	-1.0	-1.0	0.0	marker	peace	Peace	29	0418
-68940.27	-55762.335	-105111.62999999999	-18738.09	0.0	0.0	0.0	0.0	0.0	0.0	0.0	0.0	0.0	0.0	0.0	0.0	0.0	0.0	146.13793103448276	0.0	0.035583405	0.009216285	1.015927575	3.17408	0.71722	-0.8087799999999999	3309356.0	1776545009.281866	0.0	1.0	-1.0	-1.0	-1.0	-1.0	-1.0	-1.0	-1.0	-1.0	0.0	marker	peace	Peace	29	0418
-68969.83499999999	-55765.71	-105139.89	-18774.135	0.0	0.0	0.0	0.0	0.0	0.0	0.0	0.0	0.0	0.0	0.0	0.0	0.0	0.0	146.13793103448276	0.0	0.035583405	0.009216285	1.015927575	3.17408	0.71722	-0.8087799999999999	3309357.0	1776545009.281881	0.0	1.0	-1.0	-1.0	-1.0	-1.0	-1.0	-1.0	-1.0	-1.0	0.0	marker	peace	Peace	29	0418
-68921.19	-55760.805	-105067.305	-18708.57	0.0	0.0	0.0	0.0	0.0	0.0	0.0	0.0	0.0	0.0	0.0	0.0	0.0	0.0	146.13793103448276	0.0	0.035583405	0.009216285	1.015927575	3.17408	0.71722	-0.8087799999999999	3309358.0	1776545009.285908	0.0	1.0	-1.0	-1.0	-1.0	-1.0	-1.0	-1.0	-1.0	-1.0	0.0	marker	peace	Peace	29	0418
-68896.935	-55751.534999999996	-105041.79	-18686.52	0.0	0.0	0.0	0.0	0.0	0.0	0.0	0.0	0.0	0.0	0.0	0.0	0.0	0.0	146.13793103448276	0.0	0.035583405	0.009216285	1.015927575	3.17408	0.71722	-0.8087799999999999	3309359.0	1776545009.285924	0.0	1.0	-1.0	-1.0	-1.0	-1.0	-1.0	-1.0	-1.0	-1.0	0.0	marker	peace	Peace	29	0418
-68911.47	-55752.795	-105060.465	-18713.385	0.0	0.0	0.0	0.0	0.0	0.0	0.0	0.0	0.0	0.0	0.0	0.0	0.0	0.0	146.13793103448276	0.0	0.036682035	0.01123044	1.016171715	3.3571999999999997	0.65618	-0.39676	3309360.0	1776545009.289853	0.0	1.0	-1.0	-1.0	-1.0	-1.0	-1.0	-1.0	-1.0	-1.0	0.0	marker	peace	Peace	29	0418
-68917.77	-55750.32	-105070.31999999999	-18709.559999999998	0.0	0.0	0.0	0.0	0.0	0.0	0.0	0.0	0.0	0.0	0.0	0.0	0.0	0.0	146.13793103448276	0.0	0.036682035	0.01123044	1.016171715	3.3571999999999997	0.65618	-0.39676	3309361.0	1776545009.289869	0.0	1.0	-1.0	-1.0	-1.0	-1.0	-1.0	-1.0	-1.0	-1.0	0.0	marker	peace	Peace	29	0418
-68945.985	-55754.82	-105104.655	-18720.855	0.0	0.0	0.0	0.0	0.0	0.0	0.0	0.0	0.0	0.0	0.0	0.0	0.0	0.0	146.13793103448276	0.0	0.036682035	0.01123044	1.016171715	3.3571999999999997	0.65618	-0.39676	3309362.0	1776545009.293817	0.0	1.0	-1.0	-1.0	-1.0	-1.0	-1.0	-1.0	-1.0	-1.0	0.0	marker	peace	Peace	29	0418
-68975.91	-55764.18	-105155.37	-18760.545	0.0	0.0	0.0	0.0	0.0	0.0	0.0	0.0	0.0	0.0	0.0	0.0	0.0	0.0	146.13793103448276	0.0	0.036682035	0.01123044	1.016171715	3.3571999999999997	0.65618	-0.39676	3309363.0	1776545009.293833	0.0	1.0	-1.0	-1.0	-1.0	-1.0	-1.0	-1.0	-1.0	-1.0	0.0	marker	peace	Peace	29	0418
-68896.845	-55771.2	-105075.54	-18685.215	0.0	0.0	0.0	0.0	0.0	0.0	0.0	0.0	0.0	0.0	0.0	0.0	0.0	0.0	146.13793103448276	0.0	0.036682035	0.01123044	1.016171715	3.3571999999999997	0.65618	-0.39676	3309364.0	1776545009.297834	0.0	1.0	-1.0	-1.0	-1.0	-1.0	-1.0	-1.0	-1.0	-1.0	0.0	marker	peace	Peace	29	0418
-68837.48999999999	-55772.189999999995	-104999.355	-18628.739999999998	0.0	0.0	0.0	0.0	0.0	0.0	0.0	0.0	0.0	0.0	0.0	0.0	0.0	0.0	146.13793103448276	0.0	0.036682035	0.01123044	1.016171715	3.3571999999999997	0.65618	-0.39676	3309365.0	1776545009.29785	0.0	1.0	-1.0	-1.0	-1.0	-1.0	-1.0	-1.0	-1.0	-1.0	0.0	marker	peace	Peace	29	0418
-68897.295	-55790.235	-105039.405	-18690.434999999998	0.0	0.0	0.0	0.0	0.0	0.0	0.0	0.0	0.0	0.0	0.0	0.0	0.0	0.0	146.13793103448276	0.0	0.036682035	0.01123044	1.016171715	3.3571999999999997	0.65618	-0.39676	3309366.0	1776545009.301902	0.0	1.0	-1.0	-1.0	-1.0	-1.0	-1.0	-1.0	-1.0	-1.0	0.0	marker	peace	Peace	29	0418
-68895.27	-55801.17	-105041.565	-18691.965	0.0	0.0	0.0	0.0	0.0	0.0	0.0	0.0	0.0	0.0	0.0	0.0	0.0	0.0	146.13793103448276	0.0	0.036682035	0.01123044	1.016171715	3.3571999999999997	0.65618	-0.39676	3309367.0	1776545009.301918	0.0	1.0	-1.0	-1.0	-1.0	-1.0	-1.0	-1.0	-1.0	-1.0	0.0	marker	peace	Peace	29	0418
-68887.125	-55807.335	-105019.92	-18662.805	0.0	0.0	0.0	0.0	0.0	0.0	0.0	0.0	0.0	0.0	0.0	0.0	0.0	0.0	146.13793103448276	0.0	0.036682035	0.01123044	1.016171715	3.3571999999999997	0.65618	-0.39676	3309368.0	1776545009.30597	0.0	1.0	-1.0	-1.0	-1.0	-1.0	-1.0	-1.0	-1.0	-1.0	0.0	marker	peace	Peace	29	0418
-68902.83	-55808.954999999994	-105050.43	-18705.555	0.0	0.0	0.0	0.0	0.0	0.0	0.0	0.0	0.0	0.0	0.0	0.0	0.0	0.0	146.13793103448276	0.0	0.036682035	0.01123044	1.016171715	3.3571999999999997	0.65618	-0.39676	3309369.0	1776545009.305986	0.0	1.0	-1.0	-1.0	-1.0	-1.0	-1.0	-1.0	-1.0	-1.0	0.0	marker	peace	Peace	29	0418
-68928.345	-55802.025	-105057.72	-18734.399999999998	0.0	0.0	0.0	0.0	0.0	0.0	0.0	0.0	0.0	0.0	0.0	0.0	0.0	0.0	146.13793103448276	0.0	0.036926175	0.01452633	1.018979325	2.33478	0.5341	0.2289	3309370.0	1776545009.310006	0.0	1.0	-1.0	-1.0	-1.0	-1.0	-1.0	-1.0	-1.0	-1.0	0.0	marker	peace	Peace	29	0418
-68945.175	-55790.729999999996	-105098.985	-18744.075	0.0	0.0	0.0	0.0	0.0	0.0	0.0	0.0	0.0	0.0	0.0	0.0	0.0	0.0	146.13793103448276	0.0	0.036926175	0.01452633	1.018979325	2.33478	0.5341	0.2289	3309371.0	1776545009.310022	0.0	1.0	-1.0	-1.0	-1.0	-1.0	-1.0	-1.0	-1.0	-1.0	0.0	marker	peace	Peace	29	0418
-68952.23999999999	-55778.715	-105147.135	-18733.545	0.0	0.0	0.0	0.0	0.0	0.0	0.0	0.0	0.0	0.0	0.0	0.0	0.0	0.0	146.13793103448276	0.0	0.036926175	0.01452633	1.018979325	2.33478	0.5341	0.2289	3309372.0	1776545009.317528	0.0	1.0	-1.0	-1.0	-1.0	-1.0	-1.0	-1.0	-1.0	-1.0	0.0	marker	peace	Peace	29	0418
-68946.84	-55769.939999999995	-105129.045	-18734.355	0.0	0.0	0.0	0.0	0.0	0.0	0.0	0.0	0.0	0.0	0.0	0.0	0.0	0.0	146.13793103448276	0.0	0.036926175	0.01452633	1.018979325	2.33478	0.5341	0.2289	3309373.0	1776545009.317533	0.0	1.0	-1.0	-1.0	-1.0	-1.0	-1.0	-1.0	-1.0	-1.0	0.0	marker	peace	Peace	29	0418
-68931.765	-55777.905	-105087.33	-18717.48	0.0	0.0	0.0	0.0	0.0	0.0	0.0	0.0	0.0	0.0	0.0	0.0	0.0	0.0	146.13793103448276	0.0	0.036926175	0.01452633	1.018979325	2.33478	0.5341	0.2289	3309374.0	1776545009.317989	0.0	1.0	-1.0	-1.0	-1.0	-1.0	-1.0	-1.0	-1.0	-1.0	0.0	marker	peace	Peace	29	0418
-68915.43	-55790.909999999996	-105062.355	-18704.204999999998	0.0	0.0	0.0	0.0	0.0	0.0	0.0	0.0	0.0	0.0	0.0	0.0	0.0	0.0	146.13793103448276	0.0	0.036926175	0.01452633	1.018979325	2.33478	0.5341	0.2289	3309375.0	1776545009.317993	0.0	1.0	-1.0	-1.0	-1.0	-1.0	-1.0	-1.0	-1.0	-1.0	0.0	marker	peace	Peace	29	0418
-68911.69499999999	-55797.93	-105048.405	-18702.045	0.0	0.0	0.0	0.0	0.0	0.0	0.0	0.0	0.0	0.0	0.0	0.0	0.0	0.0	146.13793103448276	0.0	0.036926175	0.01452633	1.018979325	2.33478	0.5341	0.2289	3309376.0	1776545009.321753	0.0	1.0	-1.0	-1.0	-1.0	-1.0	-1.0	-1.0	-1.0	-1.0	0.0	marker	peace	Peace	29	0418
-68875.02	-55790.729999999996	-104989.36499999999	-18662.265	0.0	0.0	0.0	0.0	0.0	0.0	0.0	0.0	0.0	0.0	0.0	0.0	0.0	0.0	146.13793103448276	0.0	0.036926175	0.01452633	1.018979325	2.33478	0.5341	0.2289	3309377.0	1776545009.321769	0.0	1.0	-1.0	-1.0	-1.0	-1.0	-1.0	-1.0	-1.0	-1.0	0.0	marker	peace	Peace	29	0418
-68869.755	-55779.119999999995	-105011.81999999999	-18677.204999999998	0.0	0.0	0.0	0.0	0.0	0.0	0.0	0.0	0.0	0.0	0.0	0.0	0.0	0.0	146.13793103448276	0.0	0.036926175	0.01452633	1.018979325	2.33478	0.5341	0.2289	3309378.0	1776545009.326123	0.0	1.0	-1.0	-1.0	-1.0	-1.0	-1.0	-1.0	-1.0	-1.0	0.0	marker	peace	Peace	29	0418
-68930.55	-55774.35	-105110.325	-18761.355	0.0	0.0	0.0	0.0	0.0	0.0	0.0	0.0	0.0	0.0	0.0	0.0	0.0	0.0	146.13793103448276	0.0	0.036926175	0.01452633	1.018979325	2.33478	0.5341	0.2289	3309379.0	1776545009.326139	0.0	1.0	-1.0	-1.0	-1.0	-1.0	-1.0	-1.0	-1.0	-1.0	0.0	marker	peace	Peace	29	0418
-68951.47499999999	-55771.38	-105119.86499999999	-18747.315	0.0	0.0	0.0	0.0	0.0	0.0	0.0	0.0	0.0	0.0	0.0	0.0	0.0	0.0	146.13793103448276	0.0	0.033508215	0.01123044	1.018735185	2.5484199999999997	0.13734	-0.36624	3309380.0	1776545009.329997	0.0	1.0	-1.0	-1.0	-1.0	-1.0	-1.0	-1.0	-1.0	-1.0	0.0	marker	peace	Peace	29	0418
-68935.815	-55773.63	-105079.095	-18709.829999999998	0.0	0.0	0.0	0.0	0.0	0.0	0.0	0.0	0.0	0.0	0.0	0.0	0.0	0.0	146.13793103448276	0.0	0.033508215	0.01123044	1.018735185	2.5484199999999997	0.13734	-0.36624	3309381.0	1776545009.330013	0.0	1.0	-1.0	-1.0	-1.0	-1.0	-1.0	-1.0	-1.0	-1.0	0.0	marker	peace	Peace	29	0418
-68919.56999999999	-55778.625	-105051.23999999999	-18696.915	0.0	0.0	0.0	0.0	0.0	0.0	0.0	0.0	0.0	0.0	0.0	0.0	0.0	0.0	146.13793103448276	0.0	0.033508215	0.01123044	1.018735185	2.5484199999999997	0.13734	-0.36624	3309382.0	1776545009.33397	0.0	1.0	-1.0	-1.0	-1.0	-1.0	-1.0	-1.0	-1.0	-1.0	0.0	marker	peace	Peace	29	0418
-68937.075	-55781.909999999996	-105101.055	-18730.035	0.0	0.0	0.0	0.0	0.0	0.0	0.0	0.0	0.0	0.0	0.0	0.0	0.0	0.0	146.13793103448276	0.0	0.033508215	0.01123044	1.018735185	2.5484199999999997	0.13734	-0.36624	3309383.0	1776545009.333985	0.0	1.0	-1.0	-1.0	-1.0	-1.0	-1.0	-1.0	-1.0	-1.0	0.0	marker	peace	Peace	29	0418
-68922.405	-55776.24	-105102.9	-18727.92	0.0	0.0	0.0	0.0	0.0	0.0	0.0	0.0	0.0	0.0	0.0	0.0	0.0	0.0	146.13793103448276	0.0	0.033508215	0.01123044	1.018735185	2.5484199999999997	0.13734	-0.36624	3309384.0	1776545009.339734	0.0	1.0	-1.0	-1.0	-1.0	-1.0	-1.0	-1.0	-1.0	-1.0	0.0	marker	peace	Peace	29	0418
-68874.795	-55767.915	-105052.14	-18681.84	0.0	0.0	0.0	0.0	0.0	0.0	0.0	0.0	0.0	0.0	0.0	0.0	0.0	0.0	146.13793103448276	0.0	0.033508215	0.01123044	1.018735185	2.5484199999999997	0.13734	-0.36624	3309385.0	1776545009.339738	0.0	1.0	-1.0	-1.0	-1.0	-1.0	-1.0	-1.0	-1.0	-1.0	0.0	marker	peace	Peace	29	0418
-68875.155	-55759.049999999996	-105045.20999999999	-18689.13	0.0	0.0	0.0	0.0	0.0	0.0	0.0	0.0	0.0	0.0	0.0	0.0	0.0	0.0	146.13793103448276	0.0	0.033508215	0.01123044	1.018735185	2.5484199999999997	0.13734	-0.36624	3309386.0	1776545009.341969	0.0	1.0	-1.0	-1.0	-1.0	-1.0	-1.0	-1.0	-1.0	-1.0	0.0	marker	peace	Peace	29	0418
-68899.815	-55749.329999999994	-105079.095	-18716.67	0.0	0.0	0.0	0.0	0.0	0.0	0.0	0.0	0.0	0.0	0.0	0.0	0.0	0.0	146.13793103448276	0.0	0.033508215	0.01123044	1.018735185	2.5484199999999997	0.13734	-0.36624	3309387.0	1776545009.341985	0.0	1.0	-1.0	-1.0	-1.0	-1.0	-1.0	-1.0	-1.0	-1.0	0.0	marker	peace	Peace	29	0418
-68941.845	-55742.22	-105119.19	-18741.42	0.0	0.0	0.0	0.0	0.0	0.0	0.0	0.0	0.0	0.0	0.0	0.0	0.0	0.0	146.13793103448276	0.0	0.033508215	0.01123044	1.018735185	2.5484199999999997	0.13734	-0.36624	3309388.0	1776545009.3479	0.0	1.0	-1.0	-1.0	-1.0	-1.0	-1.0	-1.0	-1.0	-1.0	0.0	marker	peace	Peace	29	0418
-68961.69	-55741.365	-105110.86499999999	-18741.78	0.0	0.0	0.0	0.0	0.0	0.0	0.0	0.0	0.0	0.0	0.0	0.0	0.0	0.0	146.13793103448276	0.0	0.033508215	0.01123044	1.018735185	2.5484199999999997	0.13734	-0.36624	3309389.0	1776545009.347916	0.0	1.0	-1.0	-1.0	-1.0	-1.0	-1.0	-1.0	-1.0	-1.0	0.0	marker	peace	Peace	29	0418
-68955.84	-55742.354999999996	-105099.25499999999	-18742.725	0.0	0.0	0.0	0.0	0.0	0.0	0.0	0.0	0.0	0.0	0.0	0.0	0.0	0.0	146.13793103448276	0.0	0.03283683	0.01135251	1.018613115	2.63998	-0.16785999999999998	-0.01526	3309390.0	1776545009.351324	0.0	1.0	-1.0	-1.0	-1.0	-1.0	-1.0	-1.0	-1.0	-1.0	0.0	marker	peace	Peace	29	0418
-68932.035	-55757.34	-105077.655	-18724.274999999998	0.0	0.0	0.0	0.0	0.0	0.0	0.0	0.0	0.0	0.0	0.0	0.0	0.0	0.0	146.13793103448276	0.0	0.03283683	0.01135251	1.018613115	2.63998	-0.16785999999999998	-0.01526	3309391.0	1776545009.35135	0.0	1.0	-1.0	-1.0	-1.0	-1.0	-1.0	-1.0	-1.0	-1.0	0.0	marker	peace	Peace	29	0418
-68900.58	-55767.015	-105071.48999999999	-18713.07	0.0	0.0	0.0	0.0	0.0	0.0	0.0	0.0	0.0	0.0	0.0	0.0	0.0	0.0	146.13793103448276	0.0	0.03283683	0.01135251	1.018613115	2.63998	-0.16785999999999998	-0.01526	3309392.0	1776545009.354065	0.0	1.0	-1.0	-1.0	-1.0	-1.0	-1.0	-1.0	-1.0	-1.0	0.0	marker	peace	Peace	29	0418
-68909.22	-55763.775	-105075.495	-18720.495	0.0	0.0	0.0	0.0	0.0	0.0	0.0	0.0	0.0	0.0	0.0	0.0	0.0	0.0	146.13793103448276	0.0	0.03283683	0.01135251	1.018613115	2.63998	-0.16785999999999998	-0.01526	3309393.0	1776545009.354081	0.0	1.0	-1.0	-1.0	-1.0	-1.0	-1.0	-1.0	-1.0	-1.0	0.0	marker	peace	Peace	29	0418
-68899.23	-55758.689999999995	-105045.795	-18693.809999999998	0.0	0.0	0.0	0.0	0.0	0.0	0.0	0.0	0.0	0.0	0.0	0.0	0.0	0.0	146.13793103448276	0.0	0.03283683	0.01135251	1.018613115	2.63998	-0.16785999999999998	-0.01526	3309394.0	1776545009.358088	0.0	1.0	-1.0	-1.0	-1.0	-1.0	-1.0	-1.0	-1.0	-1.0	0.0	marker	peace	Peace	29	0418
-68883.03	-55740.869999999995	-105022.935	-18678.555	0.0	0.0	0.0	0.0	0.0	0.0	0.0	0.0	0.0	0.0	0.0	0.0	0.0	0.0	146.13793103448276	0.0	0.03283683	0.01135251	1.018613115	2.63998	-0.16785999999999998	-0.01526	3309395.0	1776545009.358103	0.0	1.0	-1.0	-1.0	-1.0	-1.0	-1.0	-1.0	-1.0	-1.0	0.0	marker	peace	Peace	29	0418
-68922.18	-55729.619999999995	-105037.155	-18698.445	0.0	0.0	0.0	0.0	0.0	0.0	0.0	0.0	0.0	0.0	0.0	0.0	0.0	0.0	146.13793103448276	0.0	0.03283683	0.01135251	1.018613115	2.63998	-0.16785999999999998	-0.01526	3309396.0	1776545009.36211	0.0	1.0	-1.0	-1.0	-1.0	-1.0	-1.0	-1.0	-1.0	-1.0	0.0	marker	peace	Peace	29	0418
-68862.645	-55732.005	-104999.12999999999	-18653.399999999998	0.0	0.0	0.0	0.0	0.0	0.0	0.0	0.0	0.0	0.0	0.0	0.0	0.0	0.0	146.13793103448276	0.0	0.03283683	0.01135251	1.018613115	2.63998	-0.16785999999999998	-0.01526	3309397.0	1776545009.362124	0.0	1.0	-1.0	-1.0	-1.0	-1.0	-1.0	-1.0	-1.0	-1.0	0.0	marker	peace	Peace	29	0418
-68827.455	-55740.869999999995	-105020.415	-18637.155	0.0	0.0	0.0	0.0	0.0	0.0	0.0	0.0	0.0	0.0	0.0	0.0	0.0	0.0	146.13793103448276	0.0	0.03283683	0.01135251	1.018613115	2.63998	-0.16785999999999998	-0.01526	3309398.0	1776545009.366249	0.0	1.0	-1.0	-1.0	-1.0	-1.0	-1.0	-1.0	-1.0	-1.0	0.0	marker	peace	Peace	29	0418
-68978.11499999999	-55762.335	-105154.875	-18769.905	0.0	0.0	0.0	0.0	0.0	0.0	0.0	0.0	0.0	0.0	0.0	0.0	0.0	0.0	146.13793103448276	0.0	0.03283683	0.01135251	1.018613115	2.63998	-0.16785999999999998	-0.01526	3309399.0	1776545009.366264	0.0	1.0	-1.0	-1.0	-1.0	-1.0	-1.0	-1.0	-1.0	-1.0	0.0	marker	peace	Peace	29	0418
-68973.56999999999	-55768.095	-105123.555	-18751.274999999998	0.0	0.0	0.0	0.0	0.0	0.0	0.0	0.0	0.0	0.0	0.0	0.0	0.0	0.0	146.13793103448276	0.0	0.03430167	0.010986300000000001	1.01708724	2.25848	0.16785999999999998	-0.74774	3309400.0	1776545009.370222	0.0	1.0	-1.0	-1.0	-1.0	-1.0	-1.0	-1.0	-1.0	-1.0	0.0	marker	peace	Peace	29	0418
-68925.735	-55753.829999999994	-105075.495	-18725.76	0.0	0.0	0.0	0.0	0.0	0.0	0.0	0.0	0.0	0.0	0.0	0.0	0.0	0.0	146.13793103448276	0.0	0.03430167	0.010986300000000001	1.01708724	2.25848	0.16785999999999998	-0.74774	3309401.0	1776545009.370237	0.0	1.0	-1.0	-1.0	-1.0	-1.0	-1.0	-1.0	-1.0	-1.0	0.0	marker	peace	Peace	29	0418
-68909.48999999999	-55748.25	-105045.61499999999	-18697.95	0.0	0.0	0.0	0.0	0.0	0.0	0.0	0.0	0.0	0.0	0.0	0.0	0.0	0.0	146.13793103448276	0.0	0.03430167	0.010986300000000001	1.01708724	2.25848	0.16785999999999998	-0.74774	3309402.0	1776545009.378228	0.0	1.0	-1.0	-1.0	-1.0	-1.0	-1.0	-1.0	-1.0	-1.0	0.0	marker	peace	Peace	29	0418
-68915.565	-55744.829999999994	-105080.985	-18697.094999999998	0.0	0.0	0.0	0.0	0.0	0.0	0.0	0.0	0.0	0.0	0.0	0.0	0.0	0.0	146.13793103448276	0.0	0.03430167	0.010986300000000001	1.01708724	2.25848	0.16785999999999998	-0.74774	3309403.0	1776545009.378243	0.0	1.0	-1.0	-1.0	-1.0	-1.0	-1.0	-1.0	-1.0	-1.0	0.0	marker	peace	Peace	29	0418
-68941.62	-55742.13	-105110.64	-18730.71	0.0	0.0	0.0	0.0	0.0	0.0	0.0	0.0	0.0	0.0	0.0	0.0	0.0	0.0	146.13793103448276	0.0	0.03430167	0.010986300000000001	1.01708724	2.25848	0.16785999999999998	-0.74774	3309404.0	1776545009.379373	0.0	1.0	-1.0	-1.0	-1.0	-1.0	-1.0	-1.0	-1.0	-1.0	0.0	marker	peace	Peace	29	0418
-68958.54	-55735.47	-105109.56	-18743.13	0.0	0.0	0.0	0.0	0.0	0.0	0.0	0.0	0.0	0.0	0.0	0.0	0.0	0.0	146.13793103448276	0.0	0.03430167	0.010986300000000001	1.01708724	2.25848	0.16785999999999998	-0.74774	3309405.0	1776545009.379388	0.0	1.0	-1.0	-1.0	-1.0	-1.0	-1.0	-1.0	-1.0	-1.0	0.0	marker	peace	Peace	29	0418
-68957.55	-55736.009999999995	-105109.69499999999	-18739.44	0.0	0.0	0.0	0.0	0.0	0.0	0.0	0.0	0.0	0.0	0.0	0.0	0.0	0.0	146.13793103448276	0.0	0.03430167	0.010986300000000001	1.01708724	2.25848	0.16785999999999998	-0.74774	3309406.0	1776545009.382246	0.0	1.0	-1.0	-1.0	-1.0	-1.0	-1.0	-1.0	-1.0	-1.0	0.0	marker	peace	Peace	29	0418
-68952.87	-55736.685	-105113.565	-18736.965	0.0	0.0	0.0	0.0	0.0	0.0	0.0	0.0	0.0	0.0	0.0	0.0	0.0	0.0	146.13793103448276	0.0	0.03430167	0.010986300000000001	1.01708724	2.25848	0.16785999999999998	-0.74774	3309407.0	1776545009.382261	0.0	1.0	-1.0	-1.0	-1.0	-1.0	-1.0	-1.0	-1.0	-1.0	0.0	marker	peace	Peace	29	0418
-68948.81999999999	-55763.055	-105107.44499999999	-18732.78	0.0	0.0	0.0	0.0	0.0	0.0	0.0	0.0	0.0	0.0	0.0	0.0	0.0	0.0	146.13793103448276	0.0	0.03430167	0.010986300000000001	1.01708724	2.25848	0.16785999999999998	-0.74774	3309408.0	1776545009.38626	0.0	1.0	-1.0	-1.0	-1.0	-1.0	-1.0	-1.0	-1.0	-1.0	0.0	marker	peace	Peace	29	0418
-68941.98	-55787.22	-105104.51999999999	-18727.2	0.0	0.0	0.0	0.0	0.0	0.0	0.0	0.0	0.0	0.0	0.0	0.0	0.0	0.0	146.13793103448276	0.0	0.03430167	0.010986300000000001	1.01708724	2.25848	0.16785999999999998	-0.74774	3309409.0	1776545009.386276	0.0	1.0	-1.0	-1.0	-1.0	-1.0	-1.0	-1.0	-1.0	-1.0	0.0	marker	peace	Peace	29	0418
-68903.055	-55784.025	-105064.065	-18711.135	0.0	0.0	0.0	0.0	0.0	0.0	0.0	0.0	0.0	0.0	0.0	0.0	0.0	0.0	146.13793103448276	0.0	0.03625479	0.01086423	1.01464584	2.2889999999999997	0.47306	-0.3815	3309410.0	1776545009.390212	0.0	1.0	-1.0	-1.0	-1.0	-1.0	-1.0	-1.0	-1.0	-1.0	0.0	marker	peace	Peace	29	0418
-68897.655	-55765.71	-105038.73	-18718.29	0.0	0.0	0.0	0.0	0.0	0.0	0.0	0.0	0.0	0.0	0.0	0.0	0.0	0.0	146.13793103448276	0.0	0.03625479	0.01086423	1.01464584	2.2889999999999997	0.47306	-0.3815	3309411.0	1776545009.390227	0.0	1.0	-1.0	-1.0	-1.0	-1.0	-1.0	-1.0	-1.0	-1.0	0.0	marker	peace	Peace	29	0418
-68872.545	-55749.869999999995	-105037.29	-18687.195	0.0	0.0	0.0	0.0	0.0	0.0	0.0	0.0	0.0	0.0	0.0	0.0	0.0	0.0	146.13793103448276	0.0	0.03625479	0.01086423	1.01464584	2.2889999999999997	0.47306	-0.3815	3309412.0	1776545009.394163	0.0	1.0	-1.0	-1.0	-1.0	-1.0	-1.0	-1.0	-1.0	-1.0	0.0	marker	peace	Peace	29	0418
-68857.38	-55740.195	-105036.03	-18658.62	0.0	0.0	0.0	0.0	0.0	0.0	0.0	0.0	0.0	0.0	0.0	0.0	0.0	0.0	146.13793103448276	0.0	0.03625479	0.01086423	1.01464584	2.2889999999999997	0.47306	-0.3815	3309413.0	1776545009.394178	0.0	1.0	-1.0	-1.0	-1.0	-1.0	-1.0	-1.0	-1.0	-1.0	0.0	marker	peace	Peace	29	0418
-68832.405	-55729.439999999995	-104991.075	-18623.024999999998	0.0	0.0	0.0	0.0	0.0	0.0	0.0	0.0	0.0	0.0	0.0	0.0	0.0	0.0	146.13793103448276	0.0	0.03625479	0.01086423	1.01464584	2.2889999999999997	0.47306	-0.3815	3309414.0	1776545009.398324	0.0	1.0	-1.0	-1.0	-1.0	-1.0	-1.0	-1.0	-1.0	-1.0	0.0	marker	peace	Peace	29	0418
-68926.635	-55736.909999999996	-105066.09	-18699.48	0.0	0.0	0.0	0.0	0.0	0.0	0.0	0.0	0.0	0.0	0.0	0.0	0.0	0.0	146.13793103448276	0.0	0.03625479	0.01086423	1.01464584	2.2889999999999997	0.47306	-0.3815	3309415.0	1776545009.398338	0.0	1.0	-1.0	-1.0	-1.0	-1.0	-1.0	-1.0	-1.0	-1.0	0.0	marker	peace	Peace	29	0418
-69029.37	-55759.77	-105153.795	-18783.719999999998	0.0	0.0	0.0	0.0	0.0	0.0	0.0	0.0	0.0	0.0	0.0	0.0	0.0	0.0	146.13793103448276	0.0	0.03625479	0.01086423	1.01464584	2.2889999999999997	0.47306	-0.3815	3309416.0	1776545009.402322	0.0	1.0	-1.0	-1.0	-1.0	-1.0	-1.0	-1.0	-1.0	-1.0	0.0	marker	peace	Peace	29	0418
-68956.2	-55765.305	-105092.37	-18718.065	0.0	0.0	0.0	0.0	0.0	0.0	0.0	0.0	0.0	0.0	0.0	0.0	0.0	0.0	146.13793103448276	0.0	0.03625479	0.01086423	1.01464584	2.2889999999999997	0.47306	-0.3815	3309417.0	1776545009.40233	0.0	1.0	-1.0	-1.0	-1.0	-1.0	-1.0	-1.0	-1.0	-1.0	0.0	marker	peace	Peace	29	0418
-68926.185	-55758.78	-105077.34	-18704.52	0.0	0.0	0.0	0.0	0.0	0.0	0.0	0.0	0.0	0.0	0.0	0.0	0.0	0.0	146.13793103448276	0.0	0.03625479	0.01086423	1.01464584	2.2889999999999997	0.47306	-0.3815	3309418.0	1776545009.409195	0.0	1.0	-1.0	-1.0	-1.0	-1.0	-1.0	-1.0	-1.0	-1.0	0.0	marker	peace	Peace	29	0418
-68940.94499999999	-55754.82	-105096.59999999999	-18735.255	0.0	0.0	0.0	0.0	0.0	0.0	0.0	0.0	0.0	0.0	0.0	0.0	0.0	0.0	146.13793103448276	0.0	0.03625479	0.01086423	1.01464584	2.2889999999999997	0.47306	-0.3815	3309419.0	1776545009.409212	0.0	1.0	-1.0	-1.0	-1.0	-1.0	-1.0	-1.0	-1.0	-1.0	0.0	marker	peace	Peace	29	0418
-68889.59999999999	-55742.759999999995	-105055.155	-18709.245	0.0	0.0	0.0	0.0	0.0	0.0	0.0	0.0	0.0	0.0	0.0	0.0	0.0	0.0	146.13793103448276	0.0	0.035339265	0.011169405	1.01647689	2.25848	0.28994	-0.51884	3309420.0	1776545009.41029	0.0	1.0	-1.0	-1.0	-1.0	-1.0	-1.0	-1.0	-1.0	-1.0	0.0	marker	peace	Peace	29	0418
-68870.43	-55728.945	-105025.86	-18682.29	0.0	0.0	0.0	0.0	0.0	0.0	0.0	0.0	0.0	0.0	0.0	0.0	0.0	0.0	146.13793103448276	0.0	0.035339265	0.011169405	1.01647689	2.25848	0.28994	-0.51884	3309421.0	1776545009.410305	0.0	1.0	-1.0	-1.0	-1.0	-1.0	-1.0	-1.0	-1.0	-1.0	0.0	marker	peace	Peace	29	0418
-68932.98	-55733.805	-105071.94	-18735.03	0.0	0.0	0.0	0.0	0.0	0.0	0.0	0.0	0.0	0.0	0.0	0.0	0.0	0.0	146.13793103448276	0.0	0.035339265	0.011169405	1.01647689	2.25848	0.28994	-0.51884	3309422.0	1776545009.414355	0.0	1.0	-1.0	-1.0	-1.0	-1.0	-1.0	-1.0	-1.0	-1.0	0.0	marker	peace	Peace	29	0418
-68957.19	-55744.965	-105102.495	-18747.0	0.0	0.0	0.0	0.0	0.0	0.0	0.0	0.0	0.0	0.0	0.0	0.0	0.0	0.0	146.13793103448276	0.0	0.035339265	0.011169405	1.01647689	2.25848	0.28994	-0.51884	3309423.0	1776545009.414371	0.0	1.0	-1.0	-1.0	-1.0	-1.0	-1.0	-1.0	-1.0	-1.0	0.0	marker	peace	Peace	29	0418
-68937.12	-55750.77	-105084.405	-18719.91	0.0	0.0	0.0	0.0	0.0	0.0	0.0	0.0	0.0	0.0	0.0	0.0	0.0	0.0	146.13793103448276	0.0	0.035339265	0.011169405	1.01647689	2.25848	0.28994	-0.51884	3309424.0	1776545009.418365	0.0	1.0	-1.0	-1.0	-1.0	-1.0	-1.0	-1.0	-1.0	-1.0	0.0	marker	peace	Peace	29	0418
-68947.47	-55755.09	-105085.215	-18718.649999999998	0.0	0.0	0.0	0.0	0.0	0.0	0.0	0.0	0.0	0.0	0.0	0.0	0.0	0.0	146.13793103448276	0.0	0.035339265	0.011169405	1.01647689	2.25848	0.28994	-0.51884	3309425.0	1776545009.418381	0.0	1.0	-1.0	-1.0	-1.0	-1.0	-1.0	-1.0	-1.0	-1.0	0.0	marker	peace	Peace	29	0418
-68909.67	-55747.53	-105076.845	-18705.465	0.0	0.0	0.0	0.0	0.0	0.0	0.0	0.0	0.0	0.0	0.0	0.0	0.0	0.0	146.13793103448276	0.0	0.035339265	0.011169405	1.01647689	2.25848	0.28994	-0.51884	3309426.0	1776545009.42231	0.0	1.0	-1.0	-1.0	-1.0	-1.0	-1.0	-1.0	-1.0	-1.0	0.0	marker	peace	Peace	29	0418
-68844.06	-55729.799999999996	-105006.59999999999	-18633.825	0.0	0.0	0.0	0.0	0.0	0.0	0.0	0.0	0.0	0.0	0.0	0.0	0.0	0.0	146.13793103448276	0.0	0.035339265	0.011169405	1.01647689	2.25848	0.28994	-0.51884	3309427.0	1776545009.422318	0.0	1.0	-1.0	-1.0	-1.0	-1.0	-1.0	-1.0	-1.0	-1.0	0.0	marker	peace	Peace	29	0418
-68952.645	-55730.52	-105097.815	-18725.085	0.0	0.0	0.0	0.0	0.0	0.0	0.0	0.0	0.0	0.0	0.0	0.0	0.0	0.0	146.13793103448276	0.0	0.035339265	0.011169405	1.01647689	2.25848	0.28994	-0.51884	3309428.0	1776545009.426474	0.0	1.0	-1.0	-1.0	-1.0	-1.0	-1.0	-1.0	-1.0	-1.0	0.0	marker	peace	Peace	29	0418
-68952.915	-55728.314999999995	-105096.19499999999	-18743.085	0.0	0.0	0.0	0.0	0.0	0.0	0.0	0.0	0.0	0.0	0.0	0.0	0.0	0.0	146.13793103448276	0.0	0.035339265	0.011169405	1.01647689	2.25848	0.28994	-0.51884	3309429.0	1776545009.426489	0.0	1.0	-1.0	-1.0	-1.0	-1.0	-1.0	-1.0	-1.0	-1.0	0.0	marker	peace	Peace	29	0418
-68888.205	-55733.895	-105043.05	-18690.84	0.0	0.0	0.0	0.0	0.0	0.0	0.0	0.0	0.0	0.0	0.0	0.0	0.0	0.0	146.13793103448276	0.0	0.03466788	0.00927732	1.01720931	2.48738	0.33571999999999996	-0.50358	3309430.0	1776545009.430414	0.0	1.0	-1.0	-1.0	-1.0	-1.0	-1.0	-1.0	-1.0	-1.0	0.0	marker	peace	Peace	29	0418
-68919.075	-55746.225	-105043.905	-18699.434999999998	0.0	0.0	0.0	0.0	0.0	0.0	0.0	0.0	0.0	0.0	0.0	0.0	0.0	0.0	146.13793103448276	0.0	0.03466788	0.00927732	1.01720931	2.48738	0.33571999999999996	-0.50358	3309431.0	1776545009.430429	0.0	1.0	-1.0	-1.0	-1.0	-1.0	-1.0	-1.0	-1.0	-1.0	0.0	marker	peace	Peace	29	0418
-68933.61	-55762.155	-105061.5	-18720.945	0.0	0.0	0.0	0.0	0.0	0.0	0.0	0.0	0.0	0.0	0.0	0.0	0.0	0.0	146.13793103448276	0.0	0.03466788	0.00927732	1.01720931	2.48738	0.33571999999999996	-0.50358	3309432.0	1776545009.434391	0.0	1.0	-1.0	-1.0	-1.0	-1.0	-1.0	-1.0	-1.0	-1.0	0.0	marker	peace	Peace	29	0418
-68942.7	-55756.17	-105088.23	-18728.19	0.0	0.0	0.0	0.0	0.0	0.0	0.0	0.0	0.0	0.0	0.0	0.0	0.0	0.0	146.13793103448276	0.0	0.03466788	0.00927732	1.01720931	2.48738	0.33571999999999996	-0.50358	3309433.0	1776545009.434406	0.0	1.0	-1.0	-1.0	-1.0	-1.0	-1.0	-1.0	-1.0	-1.0	0.0	marker	peace	Peace	29	0418
-68908.995	-55735.515	-105051.78	-18690.255	0.0	0.0	0.0	0.0	0.0	0.0	0.0	0.0	0.0	0.0	0.0	0.0	0.0	0.0	146.13793103448276	0.0	0.03466788	0.00927732	1.01720931	2.48738	0.33571999999999996	-0.50358	3309434.0	1776545009.438438	0.0	1.0	-1.0	-1.0	-1.0	-1.0	-1.0	-1.0	-1.0	-1.0	0.0	marker	peace	Peace	29	0418
-68930.09999999999	-55732.68	-105085.98	-18729.27	0.0	0.0	0.0	0.0	0.0	0.0	0.0	0.0	0.0	0.0	0.0	0.0	0.0	0.0	146.13793103448276	0.0	0.03466788	0.00927732	1.01720931	2.48738	0.33571999999999996	-0.50358	3309435.0	1776545009.43847	0.0	1.0	-1.0	-1.0	-1.0	-1.0	-1.0	-1.0	-1.0	-1.0	0.0	marker	peace	Peace	29	0418
-68883.84	-55724.085	-105072.525	-18700.29	0.0	0.0	0.0	0.0	0.0	0.0	0.0	0.0	0.0	0.0	0.0	0.0	0.0	0.0	146.13793103448276	0.0	0.03466788	0.00927732	1.01720931	2.48738	0.33571999999999996	-0.50358	3309436.0	1776545009.442841	0.0	1.0	-1.0	-1.0	-1.0	-1.0	-1.0	-1.0	-1.0	-1.0	0.0	marker	peace	Peace	29	0418
-68894.055	-55711.17	-105045.075	-18664.065	0.0	0.0	0.0	0.0	0.0	0.0	0.0	0.0	0.0	0.0	0.0	0.0	0.0	0.0	146.13793103448276	0.0	0.03466788	0.00927732	1.01720931	2.48738	0.33571999999999996	-0.50358	3309437.0	1776545009.442862	0.0	1.0	-1.0	-1.0	-1.0	-1.0	-1.0	-1.0	-1.0	-1.0	0.0	marker	peace	Peace	29	0418
-68891.04	-55718.325	-105051.375	-18670.59	0.0	0.0	0.0	0.0	0.0	0.0	0.0	0.0	0.0	0.0	0.0	0.0	0.0	0.0	146.13793103448276	0.0	0.03466788	0.00927732	1.01720931	2.48738	0.33571999999999996	-0.50358	3309438.0	1776545009.446384	0.0	1.0	-1.0	-1.0	-1.0	-1.0	-1.0	-1.0	-1.0	-1.0	0.0	marker	peace	Peace	29	0418
-68893.33499999999	-55728.854999999996	-105063.56999999999	-18711.675	0.0	0.0	0.0	0.0	0.0	0.0	0.0	0.0	0.0	0.0	0.0	0.0	0.0	0.0	146.13793103448276	0.0	0.03466788	0.00927732	1.01720931	2.48738	0.33571999999999996	-0.50358	3309439.0	1776545009.446412	0.0	1.0	-1.0	-1.0	-1.0	-1.0	-1.0	-1.0	-1.0	-1.0	0.0	marker	peace	Peace	29	0418
-68958.675	-55736.1	-105115.95	-18748.485	0.0	0.0	0.0	0.0	0.0	0.0	0.0	0.0	0.0	0.0	0.0	0.0	0.0	0.0	146.13793103448276	0.0	0.03515616	0.008483865	1.018979325	3.17408	0.12208	-0.6867	3309440.0	1776545009.450418	0.0	1.0	-1.0	-1.0	-1.0	-1.0	-1.0	-1.0	-1.0	-1.0	0.0	marker	peace	Peace	29	0418
-68952.95999999999	-55731.6	-105099.165	-18734.579999999998	0.0	0.0	0.0	0.0	0.0	0.0	0.0	0.0	0.0	0.0	0.0	0.0	0.0	0.0	146.13793103448276	0.0	0.03515616	0.008483865	1.018979325	3.17408	0.12208	-0.6867	3309441.0	1776545009.450436	0.0	1.0	-1.0	-1.0	-1.0	-1.0	-1.0	-1.0	-1.0	-1.0	0.0	marker	peace	Peace	29	0418
-68939.685	-55732.59	-105098.53499999999	-18740.114999999998	0.0	0.0	0.0	0.0	0.0	0.0	0.0	0.0	0.0	0.0	0.0	0.0	0.0	0.0	146.13793103448276	0.0	0.03515616	0.008483865	1.018979325	3.17408	0.12208	-0.6867	3309442.0	1776545009.45651	0.0	1.0	-1.0	-1.0	-1.0	-1.0	-1.0	-1.0	-1.0	-1.0	0.0	marker	peace	Peace	29	0418
-68905.755	-55728.9	-105061.68	-18690.704999999998	0.0	0.0	0.0	0.0	0.0	0.0	0.0	0.0	0.0	0.0	0.0	0.0	0.0	0.0	146.13793103448276	0.0	0.03515616	0.008483865	1.018979325	3.17408	0.12208	-0.6867	3309443.0	1776545009.456532	0.0	1.0	-1.0	-1.0	-1.0	-1.0	-1.0	-1.0	-1.0	-1.0	0.0	marker	peace	Peace	29	0418
-68914.26	-55726.56	-105046.2	-18677.385	0.0	0.0	0.0	0.0	0.0	0.0	0.0	0.0	0.0	0.0	0.0	0.0	0.0	0.0	146.13793103448276	0.0	0.03515616	0.008483865	1.018979325	3.17408	0.12208	-0.6867	3309444.0	1776545009.458361	0.0	1.0	-1.0	-1.0	-1.0	-1.0	-1.0	-1.0	-1.0	-1.0	0.0	marker	peace	Peace	29	0418
-68914.035	-55720.845	-105074.45999999999	-18712.079999999998	0.0	0.0	0.0	0.0	0.0	0.0	0.0	0.0	0.0	0.0	0.0	0.0	0.0	0.0	146.13793103448276	0.0	0.03515616	0.008483865	1.018979325	3.17408	0.12208	-0.6867	3309445.0	1776545009.458375	0.0	1.0	-1.0	-1.0	-1.0	-1.0	-1.0	-1.0	-1.0	-1.0	0.0	marker	peace	Peace	29	0418
-68923.62	-55720.935	-105106.31999999999	-18730.8	0.0	0.0	0.0	0.0	0.0	0.0	0.0	0.0	0.0	0.0	0.0	0.0	0.0	0.0	146.13793103448276	0.0	0.03515616	0.008483865	1.018979325	3.17408	0.12208	-0.6867	3309446.0	1776545009.462477	0.0	1.0	-1.0	-1.0	-1.0	-1.0	-1.0	-1.0	-1.0	-1.0	0.0	marker	peace	Peace	29	0418
-68940.27	-55721.79	-105081.25499999999	-18725.895	0.0	0.0	0.0	0.0	0.0	0.0	0.0	0.0	0.0	0.0	0.0	0.0	0.0	0.0	146.13793103448276	0.0	0.03515616	0.008483865	1.018979325	3.17408	0.12208	-0.6867	3309447.0	1776545009.462504	0.0	1.0	-1.0	-1.0	-1.0	-1.0	-1.0	-1.0	-1.0	-1.0	0.0	marker	peace	Peace	29	0418
-68905.395	-55727.28	-105018.39	-18702.18	0.0	0.0	0.0	0.0	0.0	0.0	0.0	0.0	0.0	0.0	0.0	0.0	0.0	0.0	146.13793103448276	0.0	0.03515616	0.008483865	1.018979325	3.17408	0.12208	-0.6867	3309448.0	1776545009.46662	0.0	1.0	-1.0	-1.0	-1.0	-1.0	-1.0	-1.0	-1.0	-1.0	0.0	marker	peace	Peace	29	0418
-68918.58	-55732.005	-105017.67	-18671.489999999998	0.0	0.0	0.0	0.0	0.0	0.0	0.0	0.0	0.0	0.0	0.0	0.0	0.0	0.0	146.13793103448276	0.0	0.03515616	0.008483865	1.018979325	3.17408	0.12208	-0.6867	3309449.0	1776545009.46664	0.0	1.0	-1.0	-1.0	-1.0	-1.0	-1.0	-1.0	-1.0	-1.0	0.0	marker	peace	Peace	29	0418
-68923.755	-55732.365	-105088.86	-18693.855	0.0	0.0	0.0	0.0	0.0	0.0	0.0	0.0	0.0	0.0	0.0	0.0	0.0	0.0	146.13793103448276	0.0	0.03430167	0.01293942	1.02026106	2.01432	-0.18312	-0.19838	3309450.0	1776545009.470601	0.0	1.0	-1.0	-1.0	-1.0	-1.0	-1.0	-1.0	-1.0	-1.0	0.0	marker	peace	Peace	29	0418
-68920.515	-55731.78	-105104.385	-18713.16	0.0	0.0	0.0	0.0	0.0	0.0	0.0	0.0	0.0	0.0	0.0	0.0	0.0	0.0	146.13793103448276	0.0	0.03430167	0.01293942	1.02026106	2.01432	-0.18312	-0.19838	3309451.0	1776545009.470629	0.0	1.0	-1.0	-1.0	-1.0	-1.0	-1.0	-1.0	-1.0	-1.0	0.0	marker	peace	Peace	29	0418
-68898.015	-55726.65	-105074.81999999999	-18697.905	0.0	0.0	0.0	0.0	0.0	0.0	0.0	0.0	0.0	0.0	0.0	0.0	0.0	0.0	146.13793103448276	0.0	0.03430167	0.01293942	1.02026106	2.01432	-0.18312	-0.19838	3309452.0	1776545009.474535	0.0	1.0	-1.0	-1.0	-1.0	-1.0	-1.0	-1.0	-1.0	-1.0	0.0	marker	peace	Peace	29	0418
-68906.34	-55724.579999999994	-105078.015	-18709.649999999998	0.0	0.0	0.0	0.0	0.0	0.0	0.0	0.0	0.0	0.0	0.0	0.0	0.0	0.0	146.13793103448276	0.0	0.03430167	0.01293942	1.02026106	2.01432	-0.18312	-0.19838	3309453.0	1776545009.474552	0.0	1.0	-1.0	-1.0	-1.0	-1.0	-1.0	-1.0	-1.0	-1.0	0.0	marker	peace	Peace	29	0418
-68962.815	-55729.799999999996	-105134.22	-18775.215	0.0	0.0	0.0	0.0	0.0	0.0	0.0	0.0	0.0	0.0	0.0	0.0	0.0	0.0	146.13793103448276	0.0	0.03430167	0.01293942	1.02026106	2.01432	-0.18312	-0.19838	3309454.0	1776545009.478642	0.0	1.0	-1.0	-1.0	-1.0	-1.0	-1.0	-1.0	-1.0	-1.0	0.0	marker	peace	Peace	29	0418
-68954.04	-55730.34	-105112.89	-18747.989999999998	0.0	0.0	0.0	0.0	0.0	0.0	0.0	0.0	0.0	0.0	0.0	0.0	0.0	0.0	146.13793103448276	0.0	0.03430167	0.01293942	1.02026106	2.01432	-0.18312	-0.19838	3309455.0	1776545009.478663	0.0	1.0	-1.0	-1.0	-1.0	-1.0	-1.0	-1.0	-1.0	-1.0	0.0	marker	peace	Peace	29	0418
-68939.01	-55738.979999999996	-105083.595	-18720.585	0.0	0.0	0.0	0.0	0.0	0.0	0.0	0.0	0.0	0.0	0.0	0.0	0.0	0.0	146.13793103448276	0.0	0.03430167	0.01293942	1.02026106	2.01432	-0.18312	-0.19838	3309456.0	1776545009.483931	0.0	1.0	-1.0	-1.0	-1.0	-1.0	-1.0	-1.0	-1.0	-1.0	0.0	marker	peace	Peace	29	0418
-68932.575	-55748.43	-105044.53499999999	-18696.015	0.0	0.0	0.0	0.0	0.0	0.0	0.0	0.0	0.0	0.0	0.0	0.0	0.0	0.0	146.13793103448276	0.0	0.03430167	0.01293942	1.02026106	2.01432	-0.18312	-0.19838	3309457.0	1776545009.483946	0.0	1.0	-1.0	-1.0	-1.0	-1.0	-1.0	-1.0	-1.0	-1.0	0.0	marker	peace	Peace	29	0418
-68963.48999999999	-55758.375	-105095.34	-18743.85	0.0	0.0	0.0	0.0	0.0	0.0	0.0	0.0	0.0	0.0	0.0	0.0	0.0	0.0	146.13793103448276	0.0	0.03430167	0.01293942	1.02026106	2.01432	-0.18312	-0.19838	3309458.0	1776545009.48902	0.0	1.0	-1.0	-1.0	-1.0	-1.0	-1.0	-1.0	-1.0	-1.0	0.0	marker	peace	Peace	29	0418
-68925.06	-55758.195	-105100.01999999999	-18752.355	0.0	0.0	0.0	0.0	0.0	0.0	0.0	0.0	0.0	0.0	0.0	0.0	0.0	0.0	146.13793103448276	0.0	0.03430167	0.01293942	1.02026106	2.01432	-0.18312	-0.19838	3309459.0	1776545009.489036	0.0	1.0	-1.0	-1.0	-1.0	-1.0	-1.0	-1.0	-1.0	-1.0	0.0	marker	peace	Peace	29	0418
-68912.64	-55759.365	-105068.205	-18698.715	0.0	0.0	0.0	0.0	0.0	0.0	0.0	0.0	0.0	0.0	0.0	0.0	0.0	0.0	146.13793103448276	0.0	0.034850985	0.01452633	1.02087141	1.6785999999999999	-0.18312	0.03052	3309460.0	1776545009.490489	0.0	1.0	-1.0	-1.0	-1.0	-1.0	-1.0	-1.0	-1.0	-1.0	0.0	marker	peace	Peace	29	0418
-68889.95999999999	-55751.895	-105049.665	-18663.93	0.0	0.0	0.0	0.0	0.0	0.0	0.0	0.0	0.0	0.0	0.0	0.0	0.0	0.0	146.13793103448276	0.0	0.034850985	0.01452633	1.02087141	1.6785999999999999	-0.18312	0.03052	3309461.0	1776545009.490504	0.0	1.0	-1.0	-1.0	-1.0	-1.0	-1.0	-1.0	-1.0	-1.0	0.0	marker	peace	Peace	29	0418
-68892.39	-55784.88	-105085.53	-18686.07	0.0	0.0	0.0	0.0	0.0	0.0	0.0	0.0	0.0	0.0	0.0	0.0	0.0	0.0	146.13793103448276	0.0	0.034850985	0.01452633	1.02087141	1.6785999999999999	-0.18312	0.03052	3309462.0	1776545009.494502	0.0	1.0	-1.0	-1.0	-1.0	-1.0	-1.0	-1.0	-1.0	-1.0	0.0	marker	peace	Peace	29	0418
-68881.59	-55818.18	-105068.83499999999	-18670.32	0.0	0.0	0.0	0.0	0.0	0.0	0.0	0.0	0.0	0.0	0.0	0.0	0.0	0.0	146.13793103448276	0.0	0.034850985	0.01452633	1.02087141	1.6785999999999999	-0.18312	0.03052	3309463.0	1776545009.494514	0.0	1.0	-1.0	-1.0	-1.0	-1.0	-1.0	-1.0	-1.0	-1.0	0.0	marker	peace	Peace	29	0418
-68947.92	-55825.784999999996	-105116.22	-18733.05	0.0	0.0	0.0	0.0	0.0	0.0	0.0	0.0	0.0	0.0	0.0	0.0	0.0	0.0	146.13793103448276	0.0	0.034850985	0.01452633	1.02087141	1.6785999999999999	-0.18312	0.03052	3309464.0	1776545009.498517	0.0	1.0	-1.0	-1.0	-1.0	-1.0	-1.0	-1.0	-1.0	-1.0	0.0	marker	peace	Peace	29	0418
-68951.43	-55835.729999999996	-105097.40999999999	-18731.475	0.0	0.0	0.0	0.0	0.0	0.0	0.0	0.0	0.0	0.0	0.0	0.0	0.0	0.0	146.13793103448276	0.0	0.034850985	0.01452633	1.02087141	1.6785999999999999	-0.18312	0.03052	3309465.0	1776545009.498528	0.0	1.0	-1.0	-1.0	-1.0	-1.0	-1.0	-1.0	-1.0	-1.0	0.0	marker	peace	Peace	29	0418
-68893.605	-55835.64	-105043.095	-18675.945	0.0	0.0	0.0	0.0	0.0	0.0	0.0	0.0	0.0	0.0	0.0	0.0	0.0	0.0	146.13793103448276	0.0	0.034850985	0.01452633	1.02087141	1.6785999999999999	-0.18312	0.03052	3309466.0	1776545009.502701	0.0	1.0	-1.0	-1.0	-1.0	-1.0	-1.0	-1.0	-1.0	-1.0	0.0	marker	peace	Peace	29	0418
-68844.19499999999	-55831.409999999996	-104984.595	-18624.825	0.0	0.0	0.0	0.0	0.0	0.0	0.0	0.0	0.0	0.0	0.0	0.0	0.0	0.0	146.13793103448276	0.0	0.034850985	0.01452633	1.02087141	1.6785999999999999	-0.18312	0.03052	3309467.0	1776545009.502739	0.0	1.0	-1.0	-1.0	-1.0	-1.0	-1.0	-1.0	-1.0	-1.0	0.0	marker	peace	Peace	29	0418
-68917.635	-55842.119999999995	-105058.03499999999	-18706.094999999998	0.0	0.0	0.0	0.0	0.0	0.0	0.0	0.0	0.0	0.0	0.0	0.0	0.0	0.0	146.13793103448276	0.0	0.034850985	0.01452633	1.02087141	1.6785999999999999	-0.18312	0.03052	3309468.0	1776545009.506621	0.0	1.0	-1.0	-1.0	-1.0	-1.0	-1.0	-1.0	-1.0	-1.0	0.0	marker	peace	Peace	29	0418
-68987.11499999999	-55844.549999999996	-105130.53	-18763.739999999998	0.0	0.0	0.0	0.0	0.0	0.0	0.0	0.0	0.0	0.0	0.0	0.0	0.0	0.0	146.13793103448276	0.0	0.034850985	0.01452633	1.02087141	1.6785999999999999	-0.18312	0.03052	3309469.0	1776545009.506635	0.0	1.0	-1.0	-1.0	-1.0	-1.0	-1.0	-1.0	-1.0	-1.0	0.0	marker	peace	Peace	29	0418
-68944.41	-55843.29	-105101.415	-18736.335	0.0	0.0	0.0	0.0	0.0	0.0	0.0	0.0	0.0	0.0	0.0	0.0	0.0	0.0	146.13793103448276	0.0	0.03430167	0.010681125	1.01708724	1.43444	0.03052	-0.04578	3309470.0	1776545009.510675	0.0	1.0	-1.0	-1.0	-1.0	-1.0	-1.0	-1.0	-1.0	-1.0	0.0	marker	peace	Peace	29	0418
-68942.97	-55834.38	-105101.14499999999	-18736.469999999998	0.0	0.0	0.0	0.0	0.0	0.0	0.0	0.0	0.0	0.0	0.0	0.0	0.0	0.0	146.13793103448276	0.0	0.03430167	0.010681125	1.01708724	1.43444	0.03052	-0.04578	3309471.0	1776545009.510687	0.0	1.0	-1.0	-1.0	-1.0	-1.0	-1.0	-1.0	-1.0	-1.0	0.0	marker	peace	Peace	29	0418
-68883.255	-55820.97	-105049.75499999999	-18677.61	0.0	0.0	0.0	0.0	0.0	0.0	0.0	0.0	0.0	0.0	0.0	0.0	0.0	0.0	146.13793103448276	0.0	0.03430167	0.010681125	1.01708724	1.43444	0.03052	-0.04578	3309472.0	1776545009.514683	0.0	1.0	-1.0	-1.0	-1.0	-1.0	-1.0	-1.0	-1.0	-1.0	0.0	marker	peace	Peace	29	0418
-68863.36499999999	-55817.009999999995	-105007.455	-18631.215	0.0	0.0	0.0	0.0	0.0	0.0	0.0	0.0	0.0	0.0	0.0	0.0	0.0	0.0	146.13793103448276	0.0	0.03430167	0.010681125	1.01708724	1.43444	0.03052	-0.04578	3309473.0	1776545009.514721	0.0	1.0	-1.0	-1.0	-1.0	-1.0	-1.0	-1.0	-1.0	-1.0	0.0	marker	peace	Peace	29	0418
-68949.045	-55829.744999999995	-105116.31	-18739.8	0.0	0.0	0.0	0.0	0.0	0.0	0.0	0.0	0.0	0.0	0.0	0.0	0.0	0.0	146.13793103448276	0.0	0.03430167	0.010681125	1.01708724	1.43444	0.03052	-0.04578	3309474.0	1776545009.519458	0.0	1.0	-1.0	-1.0	-1.0	-1.0	-1.0	-1.0	-1.0	-1.0	0.0	marker	peace	Peace	29	0418
-68911.11	-55833.21	-105091.83	-18726.48	0.0	0.0	0.0	0.0	0.0	0.0	0.0	0.0	0.0	0.0	0.0	0.0	0.0	0.0	146.13793103448276	0.0	0.03430167	0.010681125	1.01708724	1.43444	0.03052	-0.04578	3309475.0	1776545009.519487	0.0	1.0	-1.0	-1.0	-1.0	-1.0	-1.0	-1.0	-1.0	-1.0	0.0	marker	peace	Peace	29	0418
-68927.58	-55825.424999999996	-105069.59999999999	-18705.285	0.0	0.0	0.0	0.0	0.0	0.0	0.0	0.0	0.0	0.0	0.0	0.0	0.0	0.0	146.13793103448276	0.0	0.03430167	0.010681125	1.01708724	1.43444	0.03052	-0.04578	3309476.0	1776545009.52263	0.0	1.0	-1.0	-1.0	-1.0	-1.0	-1.0	-1.0	-1.0	-1.0	0.0	marker	peace	Peace	29	0418
-68868.18	-55809.405	-105011.595	-18670.815	0.0	0.0	0.0	0.0	0.0	0.0	0.0	0.0	0.0	0.0	0.0	0.0	0.0	0.0	146.13793103448276	0.0	0.03430167	0.010681125	1.01708724	1.43444	0.03052	-0.04578	3309477.0	1776545009.522642	0.0	1.0	-1.0	-1.0	-1.0	-1.0	-1.0	-1.0	-1.0	-1.0	0.0	marker	peace	Peace	29	0418
-68891.22	-55799.009999999995	-105053.625	-18686.655	0.0	0.0	0.0	0.0	0.0	0.0	0.0	0.0	0.0	0.0	0.0	0.0	0.0	0.0	146.13793103448276	0.0	0.03430167	0.010681125	1.01708724	1.43444	0.03052	-0.04578	3309478.0	1776545009.526639	0.0	1.0	-1.0	-1.0	-1.0	-1.0	-1.0	-1.0	-1.0	-1.0	0.0	marker	peace	Peace	29	0418
-68962.23	-55793.295	-105150.19499999999	-18773.954999999998	0.0	0.0	0.0	0.0	0.0	0.0	0.0	0.0	0.0	0.0	0.0	0.0	0.0	0.0	146.13793103448276	0.0	0.03430167	0.010681125	1.01708724	1.43444	0.03052	-0.04578	3309479.0	1776545009.526653	0.0	1.0	-1.0	-1.0	-1.0	-1.0	-1.0	-1.0	-1.0	-1.0	0.0	marker	peace	Peace	29	0418
-68913.09	-55786.725	-105084.09	-18717.93	0.0	0.0	0.0	0.0	0.0	0.0	0.0	0.0	0.0	0.0	0.0	0.0	0.0	0.0	146.13793103448276	0.0	0.037414455	0.005554185	1.01159409	2.85362	0.25942	-0.41202	3309480.0	1776545009.53125	0.0	1.0	-1.0	-1.0	-1.0	-1.0	-1.0	-1.0	-1.0	-1.0	0.0	marker	peace	Peace	29	0418
-68980.995	-55786.365	-105096.105	-18706.995	0.0	0.0	0.0	0.0	0.0	0.0	0.0	0.0	0.0	0.0	0.0	0.0	0.0	0.0	146.13793103448276	0.0	0.037414455	0.005554185	1.01159409	2.85362	0.25942	-0.41202	3309481.0	1776545009.531273	0.0	1.0	-1.0	-1.0	-1.0	-1.0	-1.0	-1.0	-1.0	-1.0	0.0	marker	peace	Peace	29	0418
-68976.765	-55791.54	-105103.17	-18723.87	0.0	0.0	0.0	0.0	0.0	0.0	0.0	0.0	0.0	0.0	0.0	0.0	0.0	0.0	146.13793103448276	0.0	0.037414455	0.005554185	1.01159409	2.85362	0.25942	-0.41202	3309482.0	1776545009.534708	0.0	1.0	-1.0	-1.0	-1.0	-1.0	-1.0	-1.0	-1.0	-1.0	0.0	marker	peace	Peace	29	0418
-68924.205	-55777.32	-105037.605	-18705.239999999998	0.0	0.0	0.0	0.0	0.0	0.0	0.0	0.0	0.0	0.0	0.0	0.0	0.0	0.0	146.13793103448276	0.0	0.037414455	0.005554185	1.01159409	2.85362	0.25942	-0.41202	3309483.0	1776545009.534761	0.0	1.0	-1.0	-1.0	-1.0	-1.0	-1.0	-1.0	-1.0	-1.0	0.0	marker	peace	Peace	29	0418
-68914.575	-55761.57	-105055.47	-18703.44	0.0	0.0	0.0	0.0	0.0	0.0	0.0	0.0	0.0	0.0	0.0	0.0	0.0	0.0	146.13793103448276	0.0	0.037414455	0.005554185	1.01159409	2.85362	0.25942	-0.41202	3309484.0	1776545009.538651	0.0	1.0	-1.0	-1.0	-1.0	-1.0	-1.0	-1.0	-1.0	-1.0	0.0	marker	peace	Peace	29	0418
-68928.20999999999	-55746.45	-105093.72	-18716.805	0.0	0.0	0.0	0.0	0.0	0.0	0.0	0.0	0.0	0.0	0.0	0.0	0.0	0.0	146.13793103448276	0.0	0.037414455	0.005554185	1.01159409	2.85362	0.25942	-0.41202	3309485.0	1776545009.53867	0.0	1.0	-1.0	-1.0	-1.0	-1.0	-1.0	-1.0	-1.0	-1.0	0.0	marker	peace	Peace	29	0418
-68950.17	-55736.954999999994	-105099.84	-18725.805	0.0	0.0	0.0	0.0	0.0	0.0	0.0	0.0	0.0	0.0	0.0	0.0	0.0	0.0	146.13793103448276	0.0	0.037414455	0.005554185	1.01159409	2.85362	0.25942	-0.41202	3309486.0	1776545009.542765	0.0	1.0	-1.0	-1.0	-1.0	-1.0	-1.0	-1.0	-1.0	-1.0	0.0	marker	peace	Peace	29	0418
-68940.09	-55730.384999999995	-105105.105	-18716.489999999998	0.0	0.0	0.0	0.0	0.0	0.0	0.0	0.0	0.0	0.0	0.0	0.0	0.0	0.0	146.13793103448276	0.0	0.037414455	0.005554185	1.01159409	2.85362	0.25942	-0.41202	3309487.0	1776545009.542779	0.0	1.0	-1.0	-1.0	-1.0	-1.0	-1.0	-1.0	-1.0	-1.0	0.0	marker	peace	Peace	29	0418
-68931.98999999999	-55727.145	-105111.18	-18718.829999999998	0.0	0.0	0.0	0.0	0.0	0.0	0.0	0.0	0.0	0.0	0.0	0.0	0.0	0.0	146.13793103448276	0.0	0.037414455	0.005554185	1.01159409	2.85362	0.25942	-0.41202	3309488.0	1776545009.546745	0.0	1.0	-1.0	-1.0	-1.0	-1.0	-1.0	-1.0	-1.0	-1.0	0.0	marker	peace	Peace	29	0418
-68935.59	-55742.715	-105095.79	-18714.015	0.0	0.0	0.0	0.0	0.0	0.0	0.0	0.0	0.0	0.0	0.0	0.0	0.0	0.0	146.13793103448276	0.0	0.037414455	0.005554185	1.01159409	2.85362	0.25942	-0.41202	3309489.0	1776545009.546771	0.0	1.0	-1.0	-1.0	-1.0	-1.0	-1.0	-1.0	-1.0	-1.0	0.0	marker	peace	Peace	29	0418
-68924.385	-55800.27	-105078.78	-18705.69	0.0	0.0	0.0	0.0	0.0	0.0	0.0	0.0	0.0	0.0	0.0	0.0	0.0	0.0	146.13793103448276	0.0	0.035949615	0.005920395	1.01293686	2.53316	0.54936	-0.73248	3309490.0	1776545009.550753	0.0	1.0	-1.0	-1.0	-1.0	-1.0	-1.0	-1.0	-1.0	-1.0	0.0	marker	peace	Peace	29	0418
-68909.84999999999	-55812.015	-105064.2	-18693.63	0.0	0.0	0.0	0.0	0.0	0.0	0.0	0.0	0.0	0.0	0.0	0.0	0.0	0.0	146.13793103448276	0.0	0.035949615	0.005920395	1.01293686	2.53316	0.54936	-0.73248	3309491.0	1776545009.550773	0.0	1.0	-1.0	-1.0	-1.0	-1.0	-1.0	-1.0	-1.0	-1.0	0.0	marker	peace	Peace	29	0418
-68909.625	-55809.945	-105050.745	-18678.105	0.0	0.0	0.0	0.0	0.0	0.0	0.0	0.0	0.0	0.0	0.0	0.0	0.0	0.0	146.13793103448276	0.0	0.035949615	0.005920395	1.01293686	2.53316	0.54936	-0.73248	3309492.0	1776545009.554703	0.0	1.0	-1.0	-1.0	-1.0	-1.0	-1.0	-1.0	-1.0	-1.0	0.0	marker	peace	Peace	29	0418
-68840.73	-55788.93	-104971.31999999999	-18619.065	0.0	0.0	0.0	0.0	0.0	0.0	0.0	0.0	0.0	0.0	0.0	0.0	0.0	0.0	146.13793103448276	0.0	0.035949615	0.005920395	1.01293686	2.53316	0.54936	-0.73248	3309493.0	1776545009.554722	0.0	1.0	-1.0	-1.0	-1.0	-1.0	-1.0	-1.0	-1.0	-1.0	0.0	marker	peace	Peace	29	0418
-68921.73	-55769.939999999995	-105019.605	-18699.165	0.0	0.0	0.0	0.0	0.0	0.0	0.0	0.0	0.0	0.0	0.0	0.0	0.0	0.0	146.13793103448276	0.0	0.035949615	0.005920395	1.01293686	2.53316	0.54936	-0.73248	3309494.0	1776545009.558774	0.0	1.0	-1.0	-1.0	-1.0	-1.0	-1.0	-1.0	-1.0	-1.0	0.0	marker	peace	Peace	29	0418
-68962.14	-55759.32	-105079.095	-18746.684999999998	0.0	0.0	0.0	0.0	0.0	0.0	0.0	0.0	0.0	0.0	0.0	0.0	0.0	0.0	146.13793103448276	0.0	0.035949615	0.005920395	1.01293686	2.53316	0.54936	-0.73248	3309495.0	1776545009.558788	0.0	1.0	-1.0	-1.0	-1.0	-1.0	-1.0	-1.0	-1.0	-1.0	0.0	marker	peace	Peace	29	0418
-68949.81	-55754.729999999996	-105138.22499999999	-18740.52	0.0	0.0	0.0	0.0	0.0	0.0	0.0	0.0	0.0	0.0	0.0	0.0	0.0	0.0	146.13793103448276	0.0	0.035949615	0.005920395	1.01293686	2.53316	0.54936	-0.73248	3309496.0	1776545009.563689	0.0	1.0	-1.0	-1.0	-1.0	-1.0	-1.0	-1.0	-1.0	-1.0	0.0	marker	peace	Peace	29	0418
-68945.895	-55741.86	-105146.19	-18741.329999999998	0.0	0.0	0.0	0.0	0.0	0.0	0.0	0.0	0.0	0.0	0.0	0.0	0.0	0.0	146.13793103448276	0.0	0.035949615	0.005920395	1.01293686	2.53316	0.54936	-0.73248	3309497.0	1776545009.563712	0.0	1.0	-1.0	-1.0	-1.0	-1.0	-1.0	-1.0	-1.0	-1.0	0.0	marker	peace	Peace	29	0418
-68912.685	-55708.965	-105074.45999999999	-18690.255	0.0	0.0	0.0	0.0	0.0	0.0	0.0	0.0	0.0	0.0	0.0	0.0	0.0	0.0	146.13793103448276	0.0	0.035949615	0.005920395	1.01293686	2.53316	0.54936	-0.73248	3309498.0	1776545009.56849	0.0	1.0	-1.0	-1.0	-1.0	-1.0	-1.0	-1.0	-1.0	-1.0	0.0	marker	peace	Peace	29	0418
-68935.815	-55617.119999999995	-105072.12	-18694.8	0.0	0.0	0.0	0.0	0.0	0.0	0.0	0.0	0.0	0.0	0.0	0.0	0.0	0.0	146.13793103448276	0.0	0.035949615	0.005920395	1.01293686	2.53316	0.54936	-0.73248	3309499.0	1776545009.568516	0.0	1.0	-1.0	-1.0	-1.0	-1.0	-1.0	-1.0	-1.0	-1.0	0.0	marker	peace	Peace	29	0418
-68940.495	-55589.625	-105083.50499999999	-18716.399999999998	0.0	0.0	0.0	0.0	0.0	0.0	0.0	0.0	0.0	0.0	0.0	0.0	0.0	0.0	146.13793103448276	0.0	0.03271476	0.00817869	1.01916243	2.88414	0.24416	-0.41202	3309500.0	1776545009.570847	0.0	1.0	-1.0	-1.0	-1.0	-1.0	-1.0	-1.0	-1.0	-1.0	0.0	marker	peace	Peace	29	0418
-68936.44499999999	-55574.009999999995	-105081.25499999999	-18735.48	0.0	0.0	0.0	0.0	0.0	0.0	0.0	0.0	0.0	0.0	0.0	0.0	0.0	0.0	146.13793103448276	0.0	0.03271476	0.00817869	1.01916243	2.88414	0.24416	-0.41202	3309501.0	1776545009.570875	0.0	1.0	-1.0	-1.0	-1.0	-1.0	-1.0	-1.0	-1.0	-1.0	0.0	marker	peace	Peace	29	0418
-68927.175	-55556.954999999994	-105082.11	-18743.579999999998	0.0	0.0	0.0	0.0	0.0	0.0	0.0	0.0	0.0	0.0	0.0	0.0	0.0	0.0	146.13793103448276	0.0	0.03271476	0.00817869	1.01916243	2.88414	0.24416	-0.41202	3309502.0	1776545009.576439	0.0	1.0	-1.0	-1.0	-1.0	-1.0	-1.0	-1.0	-1.0	-1.0	0.0	marker	peace	Peace	29	0418
-68923.845	-55545.255	-105053.985	-18694.665	0.0	0.0	0.0	0.0	0.0	0.0	0.0	0.0	0.0	0.0	0.0	0.0	0.0	0.0	146.13793103448276	0.0	0.03271476	0.00817869	1.01916243	2.88414	0.24416	-0.41202	3309503.0	1776545009.576454	0.0	1.0	-1.0	-1.0	-1.0	-1.0	-1.0	-1.0	-1.0	-1.0	0.0	marker	peace	Peace	29	0418
-68953.995	-55546.784999999996	-105108.93	-18722.385	0.0	0.0	0.0	0.0	0.0	0.0	0.0	0.0	0.0	0.0	0.0	0.0	0.0	0.0	146.13793103448276	0.0	0.03271476	0.00817869	1.01916243	2.88414	0.24416	-0.41202	3309504.0	1776545009.578944	0.0	1.0	-1.0	-1.0	-1.0	-1.0	-1.0	-1.0	-1.0	-1.0	0.0	marker	peace	Peace	29	0418
-68972.22	-55546.695	-105161.58	-18772.065	0.0	0.0	0.0	0.0	0.0	0.0	0.0	0.0	0.0	0.0	0.0	0.0	0.0	0.0	146.13793103448276	0.0	0.03271476	0.00817869	1.01916243	2.88414	0.24416	-0.41202	3309505.0	1776545009.578965	0.0	1.0	-1.0	-1.0	-1.0	-1.0	-1.0	-1.0	-1.0	-1.0	0.0	marker	peace	Peace	29	0418
-68953.995	-55551.689999999995	-105125.265	-18752.355	0.0	0.0	0.0	0.0	0.0	0.0	0.0	0.0	0.0	0.0	0.0	0.0	0.0	0.0	146.13793103448276	0.0	0.03271476	0.00817869	1.01916243	2.88414	0.24416	-0.41202	3309506.0	1776545009.582937	0.0	1.0	-1.0	-1.0	-1.0	-1.0	-1.0	-1.0	-1.0	-1.0	0.0	marker	peace	Peace	29	0418
-68944.275	-55554.165	-105092.415	-18732.195	0.0	0.0	0.0	0.0	0.0	0.0	0.0	0.0	0.0	0.0	0.0	0.0	0.0	0.0	146.13793103448276	0.0	0.03271476	0.00817869	1.01916243	2.88414	0.24416	-0.41202	3309507.0	1776545009.582964	0.0	1.0	-1.0	-1.0	-1.0	-1.0	-1.0	-1.0	-1.0	-1.0	0.0	marker	peace	Peace	29	0418
-68945.895	-55548.99	-105070.23	-18703.934999999998	0.0	0.0	0.0	0.0	0.0	0.0	0.0	0.0	0.0	0.0	0.0	0.0	0.0	0.0	146.13793103448276	0.0	0.03271476	0.00817869	1.01916243	2.88414	0.24416	-0.41202	3309508.0	1776545009.587017	0.0	1.0	-1.0	-1.0	-1.0	-1.0	-1.0	-1.0	-1.0	-1.0	0.0	marker	peace	Peace	29	0418
-68928.97499999999	-55540.845	-105066.045	-18683.954999999998	0.0	0.0	0.0	0.0	0.0	0.0	0.0	0.0	0.0	0.0	0.0	0.0	0.0	0.0	146.13793103448276	0.0	0.03271476	0.00817869	1.01916243	2.88414	0.24416	-0.41202	3309509.0	1776545009.587049	0.0	1.0	-1.0	-1.0	-1.0	-1.0	-1.0	-1.0	-1.0	-1.0	0.0	marker	peace	Peace	29	0418
-68931.27	-55529.82	-105094.75499999999	-18717.165	0.0	0.0	0.0	0.0	0.0	0.0	0.0	0.0	0.0	0.0	0.0	0.0	0.0	0.0	146.13793103448276	0.0	0.038024805	0.00720213	1.019711745	2.99096	0.16785999999999998	-0.763	3309510.0	1776545009.590872	0.0	1.0	-1.0	-1.0	-1.0	-1.0	-1.0	-1.0	-1.0	-1.0	0.0	marker	peace	Peace	29	0418
-68909.715	-55530.18	-105085.53	-18700.829999999998	0.0	0.0	0.0	0.0	0.0	0.0	0.0	0.0	0.0	0.0	0.0	0.0	0.0	0.0	146.13793103448276	0.0	0.038024805	0.00720213	1.019711745	2.99096	0.16785999999999998	-0.763	3309511.0	1776545009.590886	0.0	1.0	-1.0	-1.0	-1.0	-1.0	-1.0	-1.0	-1.0	-1.0	0.0	marker	peace	Peace	29	0418
-68945.44499999999	-55529.145	-105105.64499999999	-18720.899999999998	0.0	0.0	0.0	0.0	0.0	0.0	0.0	0.0	0.0	0.0	0.0	0.0	0.0	0.0	146.13793103448276	0.0	0.038024805	0.00720213	1.019711745	2.99096	0.16785999999999998	-0.763	3309512.0	1776545009.594835	0.0	1.0	-1.0	-1.0	-1.0	-1.0	-1.0	-1.0	-1.0	-1.0	0.0	marker	peace	Peace	29	0418
-68940.9	-55524.015	-105119.81999999999	-18758.52	0.0	0.0	0.0	0.0	0.0	0.0	0.0	0.0	0.0	0.0	0.0	0.0	0.0	0.0	146.13793103448276	0.0	0.038024805	0.00720213	1.019711745	2.99096	0.16785999999999998	-0.763	3309513.0	1776545009.594846	0.0	1.0	-1.0	-1.0	-1.0	-1.0	-1.0	-1.0	-1.0	-1.0	0.0	marker	peace	Peace	29	0418
-68909.895	-55536.255	-105078.15	-18715.59	0.0	0.0	0.0	0.0	0.0	0.0	0.0	0.0	0.0	0.0	0.0	0.0	0.0	0.0	146.13793103448276	0.0	0.038024805	0.00720213	1.019711745	2.99096	0.16785999999999998	-0.763	3309514.0	1776545009.599021	0.0	1.0	-1.0	-1.0	-1.0	-1.0	-1.0	-1.0	-1.0	-1.0	0.0	marker	peace	Peace	29	0418
-68894.685	-55547.235	-105054.435	-18672.795	0.0	0.0	0.0	0.0	0.0	0.0	0.0	0.0	0.0	0.0	0.0	0.0	0.0	0.0	146.13793103448276	0.0	0.038024805	0.00720213	1.019711745	2.99096	0.16785999999999998	-0.763	3309515.0	1776545009.599051	0.0	1.0	-1.0	-1.0	-1.0	-1.0	-1.0	-1.0	-1.0	-1.0	0.0	marker	peace	Peace	29	0418
-68940.135	-55562.985	-105080.76	-18705.915	0.0	0.0	0.0	0.0	0.0	0.0	0.0	0.0	0.0	0.0	0.0	0.0	0.0	0.0	146.13793103448276	0.0	0.038024805	0.00720213	1.019711745	2.99096	0.16785999999999998	-0.763	3309516.0	1776545009.603155	0.0	1.0	-1.0	-1.0	-1.0	-1.0	-1.0	-1.0	-1.0	-1.0	0.0	marker	peace	Peace	29	0418
-68884.785	-55564.604999999996	-105028.515	-18665.19	0.0	0.0	0.0	0.0	0.0	0.0	0.0	0.0	0.0	0.0	0.0	0.0	0.0	0.0	146.13793103448276	0.0	0.038024805	0.00720213	1.019711745	2.99096	0.16785999999999998	-0.763	3309517.0	1776545009.603195	0.0	1.0	-1.0	-1.0	-1.0	-1.0	-1.0	-1.0	-1.0	-1.0	0.0	marker	peace	Peace	29	0418
-68901.66	-55564.74	-105065.86499999999	-18696.015	0.0	0.0	0.0	0.0	0.0	0.0	0.0	0.0	0.0	0.0	0.0	0.0	0.0	0.0	146.13793103448276	0.0	0.038024805	0.00720213	1.019711745	2.99096	0.16785999999999998	-0.763	3309518.0	1776545009.606914	0.0	1.0	-1.0	-1.0	-1.0	-1.0	-1.0	-1.0	-1.0	-1.0	0.0	marker	peace	Peace	29	0418
-68959.215	-55568.07	-105116.625	-18733.32	0.0	0.0	0.0	0.0	0.0	0.0	0.0	0.0	0.0	0.0	0.0	0.0	0.0	0.0	146.13793103448276	0.0	0.038024805	0.00720213	1.019711745	2.99096	0.16785999999999998	-0.763	3309519.0	1776545009.606928	0.0	1.0	-1.0	-1.0	-1.0	-1.0	-1.0	-1.0	-1.0	-1.0	0.0	marker	peace	Peace	29	0418
-68940.405	-55571.715	-105094.89	-18719.055	0.0	0.0	0.0	0.0	0.0	0.0	0.0	0.0	0.0	0.0	0.0	0.0	0.0	0.0	146.13793103448276	0.0	0.038635155	0.007629375	1.016049645	2.85362	0.18312	-0.25942	3309520.0	1776545009.612008	0.0	1.0	-1.0	-1.0	-1.0	-1.0	-1.0	-1.0	-1.0	-1.0	0.0	marker	peace	Peace	29	0418
-68948.505	-55581.93	-105091.69499999999	-18713.88	0.0	0.0	0.0	0.0	0.0	0.0	0.0	0.0	0.0	0.0	0.0	0.0	0.0	0.0	146.13793103448276	0.0	0.038635155	0.007629375	1.016049645	2.85362	0.18312	-0.25942	3309521.0	1776545009.612021	0.0	1.0	-1.0	-1.0	-1.0	-1.0	-1.0	-1.0	-1.0	-1.0	0.0	marker	peace	Peace	29	0418
-68919.165	-55591.965	-105061.31999999999	-18686.295	0.0	0.0	0.0	0.0	0.0	0.0	0.0	0.0	0.0	0.0	0.0	0.0	0.0	0.0	146.13793103448276	0.0	0.038635155	0.007629375	1.016049645	2.85362	0.18312	-0.25942	3309522.0	1776545009.615133	0.0	1.0	-1.0	-1.0	-1.0	-1.0	-1.0	-1.0	-1.0	-1.0	0.0	marker	peace	Peace	29	0418
-68923.89	-55599.39	-105073.605	-18690.344999999998	0.0	0.0	0.0	0.0	0.0	0.0	0.0	0.0	0.0	0.0	0.0	0.0	0.0	0.0	146.13793103448276	0.0	0.038635155	0.007629375	1.016049645	2.85362	0.18312	-0.25942	3309523.0	1776545009.615165	0.0	1.0	-1.0	-1.0	-1.0	-1.0	-1.0	-1.0	-1.0	-1.0	0.0	marker	peace	Peace	29	0418
-68934.95999999999	-55598.4	-105088.31999999999	-18716.04	0.0	0.0	0.0	0.0	0.0	0.0	0.0	0.0	0.0	0.0	0.0	0.0	0.0	0.0	146.13793103448276	0.0	0.038635155	0.007629375	1.016049645	2.85362	0.18312	-0.25942	3309524.0	1776545009.619192	0.0	1.0	-1.0	-1.0	-1.0	-1.0	-1.0	-1.0	-1.0	-1.0	0.0	marker	peace	Peace	29	0418
-68881.72499999999	-55584.81	-105025.905	-18675.855	0.0	0.0	0.0	0.0	0.0	0.0	0.0	0.0	0.0	0.0	0.0	0.0	0.0	0.0	146.13793103448276	0.0	0.038635155	0.007629375	1.016049645	2.85362	0.18312	-0.25942	3309525.0	1776545009.619222	0.0	1.0	-1.0	-1.0	-1.0	-1.0	-1.0	-1.0	-1.0	-1.0	0.0	marker	peace	Peace	29	0418
-68945.58	-55579.545	-105084.54	-18718.335	0.0	0.0	0.0	0.0	0.0	0.0	0.0	0.0	0.0	0.0	0.0	0.0	0.0	0.0	146.13793103448276	0.0	0.038635155	0.007629375	1.016049645	2.85362	0.18312	-0.25942	3309526.0	1776545009.623215	0.0	1.0	-1.0	-1.0	-1.0	-1.0	-1.0	-1.0	-1.0	-1.0	0.0	marker	peace	Peace	29	0418
-68938.38	-55580.579999999994	-105105.64499999999	-18714.915	0.0	0.0	0.0	0.0	0.0	0.0	0.0	0.0	0.0	0.0	0.0	0.0	0.0	0.0	146.13793103448276	0.0	0.038635155	0.007629375	1.016049645	2.85362	0.18312	-0.25942	3309527.0	1776545009.623228	0.0	1.0	-1.0	-1.0	-1.0	-1.0	-1.0	-1.0	-1.0	-1.0	0.0	marker	peace	Peace	29	0418
-68967.72	-55579.32	-105122.06999999999	-18734.445	0.0	0.0	0.0	0.0	0.0	0.0	0.0	0.0	0.0	0.0	0.0	0.0	0.0	0.0	146.13793103448276	0.0	0.038635155	0.007629375	1.016049645	2.85362	0.18312	-0.25942	3309528.0	1776545009.626958	0.0	1.0	-1.0	-1.0	-1.0	-1.0	-1.0	-1.0	-1.0	-1.0	0.0	marker	peace	Peace	29	0418
-68939.91	-55583.189999999995	-105086.205	-18719.145	0.0	0.0	0.0	0.0	0.0	0.0	0.0	0.0	0.0	0.0	0.0	0.0	0.0	0.0	146.13793103448276	0.0	0.038635155	0.007629375	1.016049645	2.85362	0.18312	-0.25942	3309529.0	1776545009.626968	0.0	1.0	-1.0	-1.0	-1.0	-1.0	-1.0	-1.0	-1.0	-1.0	0.0	marker	peace	Peace	29	0418
-68903.775	-55596.555	-105068.97	-18699.39	0.0	0.0	0.0	0.0	0.0	0.0	0.0	0.0	0.0	0.0	0.0	0.0	0.0	0.0	146.13793103448276	0.0	0.036376860000000004	0.00769041	1.014096525	2.53316	0.15259999999999999	-0.56462	3309530.0	1776545009.635917	0.0	1.0	-1.0	-1.0	-1.0	-1.0	-1.0	-1.0	-1.0	-1.0	0.0	marker	peace	Peace	29	0418
-68919.885	-55614.195	-105042.375	-18690.93	0.0	0.0	0.0	0.0	0.0	0.0	0.0	0.0	0.0	0.0	0.0	0.0	0.0	0.0	146.13793103448276	0.0	0.036376860000000004	0.00769041	1.014096525	2.53316	0.15259999999999999	-0.56462	3309531.0	1776545009.635954	0.0	1.0	-1.0	-1.0	-1.0	-1.0	-1.0	-1.0	-1.0	-1.0	0.0	marker	peace	Peace	29	0418
-68920.425	-55632.42	-105039.045	-18689.489999999998	0.0	0.0	0.0	0.0	0.0	0.0	0.0	0.0	0.0	0.0	0.0	0.0	0.0	0.0	146.13793103448276	0.0	0.036376860000000004	0.00769041	1.014096525	2.53316	0.15259999999999999	-0.56462	3309532.0	1776545009.635992	0.0	1.0	-1.0	-1.0	-1.0	-1.0	-1.0	-1.0	-1.0	-1.0	0.0	marker	peace	Peace	29	0418
-68888.655	-55638.854999999996	-105038.28	-18665.73	0.0	0.0	0.0	0.0	0.0	0.0	0.0	0.0	0.0	0.0	0.0	0.0	0.0	0.0	146.13793103448276	0.0	0.036376860000000004	0.00769041	1.014096525	2.53316	0.15259999999999999	-0.56462	3309533.0	1776545009.636011	0.0	1.0	-1.0	-1.0	-1.0	-1.0	-1.0	-1.0	-1.0	-1.0	0.0	marker	peace	Peace	29	0418
-68846.4	-55636.02	-104997.465	-18631.89	0.0	0.0	0.0	0.0	0.0	0.0	0.0	0.0	0.0	0.0	0.0	0.0	0.0	0.0	146.13793103448276	0.0	0.036376860000000004	0.00769041	1.014096525	2.53316	0.15259999999999999	-0.56462	3309534.0	1776545009.638991	0.0	1.0	-1.0	-1.0	-1.0	-1.0	-1.0	-1.0	-1.0	-1.0	0.0	marker	peace	Peace	29	0418
-68943.95999999999	-55632.96	-105055.965	-18704.024999999998	0.0	0.0	0.0	0.0	0.0	0.0	0.0	0.0	0.0	0.0	0.0	0.0	0.0	0.0	146.13793103448276	0.0	0.036376860000000004	0.00769041	1.014096525	2.53316	0.15259999999999999	-0.56462	3309535.0	1776545009.639003	0.0	1.0	-1.0	-1.0	-1.0	-1.0	-1.0	-1.0	-1.0	-1.0	0.0	marker	peace	Peace	29	0418
-68970.015	-55631.564999999995	-105092.28	-18742.77	0.0	0.0	0.0	0.0	0.0	0.0	0.0	0.0	0.0	0.0	0.0	0.0	0.0	0.0	146.13793103448276	0.0	0.036376860000000004	0.00769041	1.014096525	2.53316	0.15259999999999999	-0.56462	3309536.0	1776545009.643049	0.0	1.0	-1.0	-1.0	-1.0	-1.0	-1.0	-1.0	-1.0	-1.0	0.0	marker	peace	Peace	29	0418
-68909.265	-55625.805	-105074.14499999999	-18707.355	0.0	0.0	0.0	0.0	0.0	0.0	0.0	0.0	0.0	0.0	0.0	0.0	0.0	0.0	146.13793103448276	0.0	0.036376860000000004	0.00769041	1.014096525	2.53316	0.15259999999999999	-0.56462	3309537.0	1776545009.643062	0.0	1.0	-1.0	-1.0	-1.0	-1.0	-1.0	-1.0	-1.0	-1.0	0.0	marker	peace	Peace	29	0418
-68886.855	-55623.825	-105024.015	-18680.67	0.0	0.0	0.0	0.0	0.0	0.0	0.0	0.0	0.0	0.0	0.0	0.0	0.0	0.0	146.13793103448276	0.0	0.036376860000000004	0.00769041	1.014096525	2.53316	0.15259999999999999	-0.56462	3309538.0	1776545009.647135	0.0	1.0	-1.0	-1.0	-1.0	-1.0	-1.0	-1.0	-1.0	-1.0	0.0	marker	peace	Peace	29	0418
-68946.20999999999	-55630.619999999995	-105089.22	-18719.415	0.0	0.0	0.0	0.0	0.0	0.0	0.0	0.0	0.0	0.0	0.0	0.0	0.0	0.0	146.13793103448276	0.0	0.036376860000000004	0.00769041	1.014096525	2.53316	0.15259999999999999	-0.56462	3309539.0	1776545009.647172	0.0	1.0	-1.0	-1.0	-1.0	-1.0	-1.0	-1.0	-1.0	-1.0	0.0	marker	peace	Peace	29	0418
-68963.175	-55631.924999999996	-105123.95999999999	-18724.23	0.0	0.0	0.0	0.0	0.0	0.0	0.0	0.0	0.0	0.0	0.0	0.0	0.0	0.0	146.13793103448276	0.0	0.034484775	0.002624505	1.01708724	4.25754	0.35097999999999996	-0.85456	3309540.0	1776545009.651117	0.0	1.0	-1.0	-1.0	-1.0	-1.0	-1.0	-1.0	-1.0	-1.0	0.0	marker	peace	Peace	29	0418
-68911.29	-55619.549999999996	-105078.19499999999	-18700.38	0.0	0.0	0.0	0.0	0.0	0.0	0.0	0.0	0.0	0.0	0.0	0.0	0.0	0.0	146.13793103448276	0.0	0.034484775	0.002624505	1.01708724	4.25754	0.35097999999999996	-0.85456	3309541.0	1776545009.651132	0.0	1.0	-1.0	-1.0	-1.0	-1.0	-1.0	-1.0	-1.0	-1.0	0.0	marker	peace	Peace	29	0418
-68815.035	-55613.52	-104984.955	-18607.815	0.0	0.0	0.0	0.0	0.0	0.0	0.0	0.0	0.0	0.0	0.0	0.0	0.0	0.0	146.13793103448276	0.0	0.034484775	0.002624505	1.01708724	4.25754	0.35097999999999996	-0.85456	3309542.0	1776545009.655197	0.0	1.0	-1.0	-1.0	-1.0	-1.0	-1.0	-1.0	-1.0	-1.0	0.0	marker	peace	Peace	29	0418
-68903.28	-55617.57	-105047.415	-18690.12	0.0	0.0	0.0	0.0	0.0	0.0	0.0	0.0	0.0	0.0	0.0	0.0	0.0	0.0	146.13793103448276	0.0	0.034484775	0.002624505	1.01708724	4.25754	0.35097999999999996	-0.85456	3309543.0	1776545009.655213	0.0	1.0	-1.0	-1.0	-1.0	-1.0	-1.0	-1.0	-1.0	-1.0	0.0	marker	peace	Peace	29	0418
-68971.995	-55611.63	-105094.98	-18732.105	0.0	0.0	0.0	0.0	0.0	0.0	0.0	0.0	0.0	0.0	0.0	0.0	0.0	0.0	146.13793103448276	0.0	0.034484775	0.002624505	1.01708724	4.25754	0.35097999999999996	-0.85456	3309544.0	1776545009.65911	0.0	1.0	-1.0	-1.0	-1.0	-1.0	-1.0	-1.0	-1.0	-1.0	0.0	marker	peace	Peace	29	0418
-68957.86499999999	-55610.1	-105093.495	-18743.76	0.0	0.0	0.0	0.0	0.0	0.0	0.0	0.0	0.0	0.0	0.0	0.0	0.0	0.0	146.13793103448276	0.0	0.034484775	0.002624505	1.01708724	4.25754	0.35097999999999996	-0.85456	3309545.0	1776545009.659124	0.0	1.0	-1.0	-1.0	-1.0	-1.0	-1.0	-1.0	-1.0	-1.0	0.0	marker	peace	Peace	29	0418
-68964.705	-55607.04	-105129.58499999999	-18775.8	0.0	0.0	0.0	0.0	0.0	0.0	0.0	0.0	0.0	0.0	0.0	0.0	0.0	0.0	146.13793103448276	0.0	0.034484775	0.002624505	1.01708724	4.25754	0.35097999999999996	-0.85456	3309546.0	1776545009.667798	0.0	1.0	-1.0	-1.0	-1.0	-1.0	-1.0	-1.0	-1.0	-1.0	0.0	marker	peace	Peace	29	0418
-68946.3	-55605.96	-105127.065	-18732.149999999998	0.0	0.0	0.0	0.0	0.0	0.0	0.0	0.0	0.0	0.0	0.0	0.0	0.0	0.0	146.13793103448276	0.0	0.034484775	0.002624505	1.01708724	4.25754	0.35097999999999996	-0.85456	3309547.0	1776545009.667821	0.0	1.0	-1.0	-1.0	-1.0	-1.0	-1.0	-1.0	-1.0	-1.0	0.0	marker	peace	Peace	29	0418
-68950.575	-55618.064999999995	-105145.29	-18712.44	0.0	0.0	0.0	0.0	0.0	0.0	0.0	0.0	0.0	0.0	0.0	0.0	0.0	0.0	146.13793103448276	0.0	0.034484775	0.002624505	1.01708724	4.25754	0.35097999999999996	-0.85456	3309548.0	1776545009.667846	0.0	1.0	-1.0	-1.0	-1.0	-1.0	-1.0	-1.0	-1.0	-1.0	0.0	marker	peace	Peace	29	0418
-68923.935	-55622.655	-105100.01999999999	-18688.5	0.0	0.0	0.0	0.0	0.0	0.0	0.0	0.0	0.0	0.0	0.0	0.0	0.0	0.0	146.13793103448276	0.0	0.034484775	0.002624505	1.01708724	4.25754	0.35097999999999996	-0.85456	3309549.0	1776545009.667855	0.0	1.0	-1.0	-1.0	-1.0	-1.0	-1.0	-1.0	-1.0	-1.0	0.0	marker	peace	Peace	29	0418
-68905.44	-55619.28	-105047.09999999999	-18667.079999999998	0.0	0.0	0.0	0.0	0.0	0.0	0.0	0.0	0.0	0.0	0.0	0.0	0.0	0.0	146.13793103448276	0.0	0.03515616	0.00964353	1.01745345	3.6624	0.50358	-0.88508	3309550.0	1776545009.671278	0.0	1.0	-1.0	-1.0	-1.0	-1.0	-1.0	-1.0	-1.0	-1.0	0.0	marker	peace	Peace	29	0418
-68885.595	-55611.54	-105050.79	-18678.42	0.0	0.0	0.0	0.0	0.0	0.0	0.0	0.0	0.0	0.0	0.0	0.0	0.0	0.0	146.13793103448276	0.0	0.03515616	0.00964353	1.01745345	3.6624	0.50358	-0.88508	3309551.0	1776545009.671325	0.0	1.0	-1.0	-1.0	-1.0	-1.0	-1.0	-1.0	-1.0	-1.0	0.0	marker	peace	Peace	29	0418
-68925.465	-55603.17	-105076.03499999999	-18704.745	0.0	0.0	0.0	0.0	0.0	0.0	0.0	0.0	0.0	0.0	0.0	0.0	0.0	0.0	146.13793103448276	0.0	0.03515616	0.00964353	1.01745345	3.6624	0.50358	-0.88508	3309552.0	1776545009.675587	0.0	1.0	-1.0	-1.0	-1.0	-1.0	-1.0	-1.0	-1.0	-1.0	0.0	marker	peace	Peace	29	0418
-68960.025	-55522.665	-105119.775	-18727.245	0.0	0.0	0.0	0.0	0.0	0.0	0.0	0.0	0.0	0.0	0.0	0.0	0.0	0.0	146.13793103448276	0.0	0.03515616	0.00964353	1.01745345	3.6624	0.50358	-0.88508	3309553.0	1776545009.675601	0.0	1.0	-1.0	-1.0	-1.0	-1.0	-1.0	-1.0	-1.0	-1.0	0.0	marker	peace	Peace	29	0418
-68943.06	-55489.814999999995	-105112.215	-18725.04	0.0	0.0	0.0	0.0	0.0	0.0	0.0	0.0	0.0	0.0	0.0	0.0	0.0	0.0	146.13793103448276	0.0	0.03515616	0.00964353	1.01745345	3.6624	0.50358	-0.88508	3309554.0	1776545009.67911	0.0	1.0	-1.0	-1.0	-1.0	-1.0	-1.0	-1.0	-1.0	-1.0	0.0	marker	peace	Peace	29	0418
-68946.61499999999	-55503.045	-105113.565	-18730.17	0.0	0.0	0.0	0.0	0.0	0.0	0.0	0.0	0.0	0.0	0.0	0.0	0.0	0.0	146.13793103448276	0.0	0.03515616	0.00964353	1.01745345	3.6624	0.50358	-0.88508	3309555.0	1776545009.679128	0.0	1.0	-1.0	-1.0	-1.0	-1.0	-1.0	-1.0	-1.0	-1.0	0.0	marker	peace	Peace	29	0418
-68930.415	-55506.375	-105094.575	-18716.309999999998	0.0	0.0	0.0	0.0	0.0	0.0	0.0	0.0	0.0	0.0	0.0	0.0	0.0	0.0	146.13793103448276	0.0	0.03515616	0.00964353	1.01745345	3.6624	0.50358	-0.88508	3309556.0	1776545009.683329	0.0	1.0	-1.0	-1.0	-1.0	-1.0	-1.0	-1.0	-1.0	-1.0	0.0	marker	peace	Peace	29	0418
-68931.09	-55509.615	-105082.155	-18700.829999999998	0.0	0.0	0.0	0.0	0.0	0.0	0.0	0.0	0.0	0.0	0.0	0.0	0.0	0.0	146.13793103448276	0.0	0.03515616	0.00964353	1.01745345	3.6624	0.50358	-0.88508	3309557.0	1776545009.683353	0.0	1.0	-1.0	-1.0	-1.0	-1.0	-1.0	-1.0	-1.0	-1.0	0.0	marker	peace	Peace	29	0418
-68942.34	-55511.46	-105075.855	-18701.1	0.0	0.0	0.0	0.0	0.0	0.0	0.0	0.0	0.0	0.0	0.0	0.0	0.0	0.0	146.13793103448276	0.0	0.03515616	0.00964353	1.01745345	3.6624	0.50358	-0.88508	3309558.0	1776545009.687326	0.0	1.0	-1.0	-1.0	-1.0	-1.0	-1.0	-1.0	-1.0	-1.0	0.0	marker	peace	Peace	29	0418
-68897.565	-55499.49	-105034.905	-18677.969999999998	0.0	0.0	0.0	0.0	0.0	0.0	0.0	0.0	0.0	0.0	0.0	0.0	0.0	0.0	146.13793103448276	0.0	0.03515616	0.00964353	1.01745345	3.6624	0.50358	-0.88508	3309559.0	1776545009.687364	0.0	1.0	-1.0	-1.0	-1.0	-1.0	-1.0	-1.0	-1.0	-1.0	0.0	marker	peace	Peace	29	0418
-68952.105	-55497.195	-105085.39499999999	-18715.905	0.0	0.0	0.0	0.0	0.0	0.0	0.0	0.0	0.0	0.0	0.0	0.0	0.0	0.0	146.13793103448276	0.0	0.036193755	0.01171872	1.01586654	2.50264	0.82404	-0.16785999999999998	3309560.0	1776545009.691283	0.0	1.0	-1.0	-1.0	-1.0	-1.0	-1.0	-1.0	-1.0	-1.0	0.0	marker	peace	Peace	29	0418
-68938.73999999999	-55494.765	-105074.50499999999	-18701.91	0.0	0.0	0.0	0.0	0.0	0.0	0.0	0.0	0.0	0.0	0.0	0.0	0.0	0.0	146.13793103448276	0.0	0.036193755	0.01171872	1.01586654	2.50264	0.82404	-0.16785999999999998	3309561.0	1776545009.691297	0.0	1.0	-1.0	-1.0	-1.0	-1.0	-1.0	-1.0	-1.0	-1.0	0.0	marker	peace	Peace	29	0418
-68915.295	-55499.579999999994	-105077.25	-18705.645	0.0	0.0	0.0	0.0	0.0	0.0	0.0	0.0	0.0	0.0	0.0	0.0	0.0	0.0	146.13793103448276	0.0	0.036193755	0.01171872	1.01586654	2.50264	0.82404	-0.16785999999999998	3309562.0	1776545009.695365	0.0	1.0	-1.0	-1.0	-1.0	-1.0	-1.0	-1.0	-1.0	-1.0	0.0	marker	peace	Peace	29	0418
-68902.245	-55502.954999999994	-105069.465	-18678.059999999998	0.0	0.0	0.0	0.0	0.0	0.0	0.0	0.0	0.0	0.0	0.0	0.0	0.0	0.0	146.13793103448276	0.0	0.036193755	0.01171872	1.01586654	2.50264	0.82404	-0.16785999999999998	3309563.0	1776545009.695391	0.0	1.0	-1.0	-1.0	-1.0	-1.0	-1.0	-1.0	-1.0	-1.0	0.0	marker	peace	Peace	29	0418
-68916.42	-55504.755	-105069.95999999999	-18687.239999999998	0.0	0.0	0.0	0.0	0.0	0.0	0.0	0.0	0.0	0.0	0.0	0.0	0.0	0.0	146.13793103448276	0.0	0.036193755	0.01171872	1.01586654	2.50264	0.82404	-0.16785999999999998	3309564.0	1776545009.699277	0.0	1.0	-1.0	-1.0	-1.0	-1.0	-1.0	-1.0	-1.0	-1.0	0.0	marker	peace	Peace	29	0418
-68936.76	-55512.854999999996	-105096.64499999999	-18717.93	0.0	0.0	0.0	0.0	0.0	0.0	0.0	0.0	0.0	0.0	0.0	0.0	0.0	0.0	146.13793103448276	0.0	0.036193755	0.01171872	1.01586654	2.50264	0.82404	-0.16785999999999998	3309565.0	1776545009.69929	0.0	1.0	-1.0	-1.0	-1.0	-1.0	-1.0	-1.0	-1.0	-1.0	0.0	marker	peace	Peace	29	0418
-68941.215	-55522.979999999996	-105103.89	-18720.27	0.0	0.0	0.0	0.0	0.0	0.0	0.0	0.0	0.0	0.0	0.0	0.0	0.0	0.0	146.13793103448276	0.0	0.036193755	0.01171872	1.01586654	2.50264	0.82404	-0.16785999999999998	3309566.0	1776545009.703307	0.0	1.0	-1.0	-1.0	-1.0	-1.0	-1.0	-1.0	-1.0	-1.0	0.0	marker	peace	Peace	29	0418
-68889.555	-55526.534999999996	-105069.105	-18693.045	0.0	0.0	0.0	0.0	0.0	0.0	0.0	0.0	0.0	0.0	0.0	0.0	0.0	0.0	146.13793103448276	0.0	0.036193755	0.01171872	1.01586654	2.50264	0.82404	-0.16785999999999998	3309567.0	1776545009.703337	0.0	1.0	-1.0	-1.0	-1.0	-1.0	-1.0	-1.0	-1.0	-1.0	0.0	marker	peace	Peace	29	0418
-68866.92	-55527.57	-105023.565	-18652.23	0.0	0.0	0.0	0.0	0.0	0.0	0.0	0.0	0.0	0.0	0.0	0.0	0.0	0.0	146.13793103448276	0.0	0.036193755	0.01171872	1.01586654	2.50264	0.82404	-0.16785999999999998	3309568.0	1776545009.711521	0.0	1.0	-1.0	-1.0	-1.0	-1.0	-1.0	-1.0	-1.0	-1.0	0.0	marker	peace	Peace	29	0418
-68955.345	-55530.54	-105081.48	-18709.38	0.0	0.0	0.0	0.0	0.0	0.0	0.0	0.0	0.0	0.0	0.0	0.0	0.0	0.0	146.13793103448276	0.0	0.036193755	0.01171872	1.01586654	2.50264	0.82404	-0.16785999999999998	3309569.0	1776545009.711537	0.0	1.0	-1.0	-1.0	-1.0	-1.0	-1.0	-1.0	-1.0	-1.0	0.0	marker	peace	Peace	29	0418
-68948.055	-55532.88	-105092.19	-18722.565	0.0	0.0	0.0	0.0	0.0	0.0	0.0	0.0	0.0	0.0	0.0	0.0	0.0	0.0	146.13793103448276	0.0	0.03723135	0.010070775	1.01330307	3.2198599999999997	0.8087799999999999	-0.50358	3309570.0	1776545009.711558	0.0	1.0	-1.0	-1.0	-1.0	-1.0	-1.0	-1.0	-1.0	-1.0	0.0	marker	peace	Peace	29	0418
-68927.715	-55529.775	-105084.855	-18708.84	0.0	0.0	0.0	0.0	0.0	0.0	0.0	0.0	0.0	0.0	0.0	0.0	0.0	0.0	146.13793103448276	0.0	0.03723135	0.010070775	1.01330307	3.2198599999999997	0.8087799999999999	-0.50358	3309571.0	1776545009.711574	0.0	1.0	-1.0	-1.0	-1.0	-1.0	-1.0	-1.0	-1.0	-1.0	0.0	marker	peace	Peace	29	0418
-68922.63	-55535.939999999995	-105065.955	-18700.965	0.0	0.0	0.0	0.0	0.0	0.0	0.0	0.0	0.0	0.0	0.0	0.0	0.0	0.0	146.13793103448276	0.0	0.03723135	0.010070775	1.01330307	3.2198599999999997	0.8087799999999999	-0.50358	3309572.0	1776545009.715442	0.0	1.0	-1.0	-1.0	-1.0	-1.0	-1.0	-1.0	-1.0	-1.0	0.0	marker	peace	Peace	29	0418
-68932.62	-55540.079999999994	-105061.995	-18720.809999999998	0.0	0.0	0.0	0.0	0.0	0.0	0.0	0.0	0.0	0.0	0.0	0.0	0.0	0.0	146.13793103448276	0.0	0.03723135	0.010070775	1.01330307	3.2198599999999997	0.8087799999999999	-0.50358	3309573.0	1776545009.715473	0.0	1.0	-1.0	-1.0	-1.0	-1.0	-1.0	-1.0	-1.0	-1.0	0.0	marker	peace	Peace	29	0418
-68955.39	-55537.424999999996	-105088.995	-18724.68	0.0	0.0	0.0	0.0	0.0	0.0	0.0	0.0	0.0	0.0	0.0	0.0	0.0	0.0	146.13793103448276	0.0	0.03723135	0.010070775	1.01330307	3.2198599999999997	0.8087799999999999	-0.50358	3309574.0	1776545009.719413	0.0	1.0	-1.0	-1.0	-1.0	-1.0	-1.0	-1.0	-1.0	-1.0	0.0	marker	peace	Peace	29	0418
-68968.305	-55528.244999999995	-105129.18	-18732.375	0.0	0.0	0.0	0.0	0.0	0.0	0.0	0.0	0.0	0.0	0.0	0.0	0.0	0.0	146.13793103448276	0.0	0.03723135	0.010070775	1.01330307	3.2198599999999997	0.8087799999999999	-0.50358	3309575.0	1776545009.719436	0.0	1.0	-1.0	-1.0	-1.0	-1.0	-1.0	-1.0	-1.0	-1.0	0.0	marker	peace	Peace	29	0418
-68922.81	-55508.67	-105083.19	-18699.975	0.0	0.0	0.0	0.0	0.0	0.0	0.0	0.0	0.0	0.0	0.0	0.0	0.0	0.0	146.13793103448276	0.0	0.03723135	0.010070775	1.01330307	3.2198599999999997	0.8087799999999999	-0.50358	3309576.0	1776545009.723317	0.0	1.0	-1.0	-1.0	-1.0	-1.0	-1.0	-1.0	-1.0	-1.0	0.0	marker	peace	Peace	29	0418
-68896.305	-55501.829999999994	-105044.355	-18677.16	0.0	0.0	0.0	0.0	0.0	0.0	0.0	0.0	0.0	0.0	0.0	0.0	0.0	0.0	146.13793103448276	0.0	0.03723135	0.010070775	1.01330307	3.2198599999999997	0.8087799999999999	-0.50358	3309577.0	1776545009.723331	0.0	1.0	-1.0	-1.0	-1.0	-1.0	-1.0	-1.0	-1.0	-1.0	0.0	marker	peace	Peace	29	0418
-68893.11	-55509.03	-105051.555	-18674.055	0.0	0.0	0.0	0.0	0.0	0.0	0.0	0.0	0.0	0.0	0.0	0.0	0.0	0.0	146.13793103448276	0.0	0.03723135	0.010070775	1.01330307	3.2198599999999997	0.8087799999999999	-0.50358	3309578.0	1776545009.728303	0.0	1.0	-1.0	-1.0	-1.0	-1.0	-1.0	-1.0	-1.0	-1.0	0.0	marker	peace	Peace	29	0418
-68932.845	-55506.42	-105103.89	-18714.87	0.0	0.0	0.0	0.0	0.0	0.0	0.0	0.0	0.0	0.0	0.0	0.0	0.0	0.0	146.13793103448276	0.0	0.03723135	0.010070775	1.01330307	3.2198599999999997	0.8087799999999999	-0.50358	3309579.0	1776545009.728332	0.0	1.0	-1.0	-1.0	-1.0	-1.0	-1.0	-1.0	-1.0	-1.0	0.0	marker	peace	Peace	29	0418
-68942.295	-55500.615	-105100.37999999999	-18718.02	0.0	0.0	0.0	0.0	0.0	0.0	0.0	0.0	0.0	0.0	0.0	0.0	0.0	0.0	146.13793103448276	0.0	0.03674307	0.012512175	1.01342514	2.2889999999999997	0.9308599999999999	0.25942	3309580.0	1776545009.731475	0.0	1.0	-1.0	-1.0	-1.0	-1.0	-1.0	-1.0	-1.0	-1.0	0.0	marker	peace	Peace	29	0418
-68937.345	-55507.14	-105081.84	-18704.114999999998	0.0	0.0	0.0	0.0	0.0	0.0	0.0	0.0	0.0	0.0	0.0	0.0	0.0	0.0	146.13793103448276	0.0	0.03674307	0.012512175	1.01342514	2.2889999999999997	0.9308599999999999	0.25942	3309581.0	1776545009.731499	0.0	1.0	-1.0	-1.0	-1.0	-1.0	-1.0	-1.0	-1.0	-1.0	0.0	marker	peace	Peace	29	0418
-68923.305	-55506.645	-105062.715	-18694.079999999998	0.0	0.0	0.0	0.0	0.0	0.0	0.0	0.0	0.0	0.0	0.0	0.0	0.0	0.0	146.13793103448276	0.0	0.03674307	0.012512175	1.01342514	2.2889999999999997	0.9308599999999999	0.25942	3309582.0	1776545009.735425	0.0	1.0	-1.0	-1.0	-1.0	-1.0	-1.0	-1.0	-1.0	-1.0	0.0	marker	peace	Peace	29	0418
-68920.69499999999	-55494.99	-105058.08	-18693.225	0.0	0.0	0.0	0.0	0.0	0.0	0.0	0.0	0.0	0.0	0.0	0.0	0.0	0.0	146.13793103448276	0.0	0.03674307	0.012512175	1.01342514	2.2889999999999997	0.9308599999999999	0.25942	3309583.0	1776545009.735453	0.0	1.0	-1.0	-1.0	-1.0	-1.0	-1.0	-1.0	-1.0	-1.0	0.0	marker	peace	Peace	29	0418
-68940.54	-55478.744999999995	-105087.28499999999	-18712.844999999998	0.0	0.0	0.0	0.0	0.0	0.0	0.0	0.0	0.0	0.0	0.0	0.0	0.0	0.0	146.13793103448276	0.0	0.03674307	0.012512175	1.01342514	2.2889999999999997	0.9308599999999999	0.25942	3309584.0	1776545009.739307	0.0	1.0	-1.0	-1.0	-1.0	-1.0	-1.0	-1.0	-1.0	-1.0	0.0	marker	peace	Peace	29	0418
-68942.97	-55476.134999999995	-105102.765	-18724.77	0.0	0.0	0.0	0.0	0.0	0.0	0.0	0.0	0.0	0.0	0.0	0.0	0.0	0.0	146.13793103448276	0.0	0.03674307	0.012512175	1.01342514	2.2889999999999997	0.9308599999999999	0.25942	3309585.0	1776545009.739321	0.0	1.0	-1.0	-1.0	-1.0	-1.0	-1.0	-1.0	-1.0	-1.0	0.0	marker	peace	Peace	29	0418
-68921.86499999999	-55470.735	-105079.455	-18695.16	0.0	0.0	0.0	0.0	0.0	0.0	0.0	0.0	0.0	0.0	0.0	0.0	0.0	0.0	146.13793103448276	0.0	0.03674307	0.012512175	1.01342514	2.2889999999999997	0.9308599999999999	0.25942	3309586.0	1776545009.74336	0.0	1.0	-1.0	-1.0	-1.0	-1.0	-1.0	-1.0	-1.0	-1.0	0.0	marker	peace	Peace	29	0418
-68935.005	-55471.005	-105086.51999999999	-18708.344999999998	0.0	0.0	0.0	0.0	0.0	0.0	0.0	0.0	0.0	0.0	0.0	0.0	0.0	0.0	146.13793103448276	0.0	0.03674307	0.012512175	1.01342514	2.2889999999999997	0.9308599999999999	0.25942	3309587.0	1776545009.743372	0.0	1.0	-1.0	-1.0	-1.0	-1.0	-1.0	-1.0	-1.0	-1.0	0.0	marker	peace	Peace	29	0418
-68918.175	-55478.07	-105065.37	-18698.04	0.0	0.0	0.0	0.0	0.0	0.0	0.0	0.0	0.0	0.0	0.0	0.0	0.0	0.0	146.13793103448276	0.0	0.03674307	0.012512175	1.01342514	2.2889999999999997	0.9308599999999999	0.25942	3309588.0	1776545009.747403	0.0	1.0	-1.0	-1.0	-1.0	-1.0	-1.0	-1.0	-1.0	-1.0	0.0	marker	peace	Peace	29	0418
-68883.705	-55493.415	-105031.34999999999	-18663.704999999998	0.0	0.0	0.0	0.0	0.0	0.0	0.0	0.0	0.0	0.0	0.0	0.0	0.0	0.0	146.13793103448276	0.0	0.03674307	0.012512175	1.01342514	2.2889999999999997	0.9308599999999999	0.25942	3309589.0	1776545009.747424	0.0	1.0	-1.0	-1.0	-1.0	-1.0	-1.0	-1.0	-1.0	-1.0	0.0	marker	peace	Peace	29	0418
-68937.56999999999	-55519.92	-105102.81	-18726.165	0.0	0.0	0.0	0.0	0.0	0.0	0.0	0.0	0.0	0.0	0.0	0.0	0.0	0.0	146.13793103448276	0.0	0.034240635	0.013244595	1.020322095	1.70912	0.7019599999999999	0.06104	3309590.0	1776545009.751401	0.0	1.0	-1.0	-1.0	-1.0	-1.0	-1.0	-1.0	-1.0	-1.0	0.0	marker	peace	Peace	29	0418
-68979.33	-55529.82	-105144.885	-18764.415	0.0	0.0	0.0	0.0	0.0	0.0	0.0	0.0	0.0	0.0	0.0	0.0	0.0	0.0	146.13793103448276	0.0	0.034240635	0.013244595	1.020322095	1.70912	0.7019599999999999	0.06104	3309591.0	1776545009.751426	0.0	1.0	-1.0	-1.0	-1.0	-1.0	-1.0	-1.0	-1.0	-1.0	0.0	marker	peace	Peace	29	0418
-68923.035	-55525.725	-105066.045	-18695.969999999998	0.0	0.0	0.0	0.0	0.0	0.0	0.0	0.0	0.0	0.0	0.0	0.0	0.0	0.0	146.13793103448276	0.0	0.034240635	0.013244595	1.020322095	1.70912	0.7019599999999999	0.06104	3309592.0	1776545009.755438	0.0	1.0	-1.0	-1.0	-1.0	-1.0	-1.0	-1.0	-1.0	-1.0	0.0	marker	peace	Peace	29	0418
-68894.73	-55521.54	-105021.0	-18675.54	0.0	0.0	0.0	0.0	0.0	0.0	0.0	0.0	0.0	0.0	0.0	0.0	0.0	0.0	146.13793103448276	0.0	0.034240635	0.013244595	1.020322095	1.70912	0.7019599999999999	0.06104	3309593.0	1776545009.755459	0.0	1.0	-1.0	-1.0	-1.0	-1.0	-1.0	-1.0	-1.0	-1.0	0.0	marker	peace	Peace	29	0418
-68895.63	-55526.174999999996	-105032.34	-18686.204999999998	0.0	0.0	0.0	0.0	0.0	0.0	0.0	0.0	0.0	0.0	0.0	0.0	0.0	0.0	146.13793103448276	0.0	0.034240635	0.013244595	1.020322095	1.70912	0.7019599999999999	0.06104	3309594.0	1776545009.76008	0.0	1.0	-1.0	-1.0	-1.0	-1.0	-1.0	-1.0	-1.0	-1.0	0.0	marker	peace	Peace	29	0418
-68918.355	-55539.63	-105087.915	-18710.01	0.0	0.0	0.0	0.0	0.0	0.0	0.0	0.0	0.0	0.0	0.0	0.0	0.0	0.0	146.13793103448276	0.0	0.034240635	0.013244595	1.020322095	1.70912	0.7019599999999999	0.06104	3309595.0	1776545009.760094	0.0	1.0	-1.0	-1.0	-1.0	-1.0	-1.0	-1.0	-1.0	-1.0	0.0	marker	peace	Peace	29	0418
-68881.68	-55546.829999999994	-105081.65999999999	-18687.465	0.0	0.0	0.0	0.0	0.0	0.0	0.0	0.0	0.0	0.0	0.0	0.0	0.0	0.0	146.13793103448276	0.0	0.034240635	0.013244595	1.020322095	1.70912	0.7019599999999999	0.06104	3309596.0	1776545009.763541	0.0	1.0	-1.0	-1.0	-1.0	-1.0	-1.0	-1.0	-1.0	-1.0	0.0	marker	peace	Peace	29	0418
-68909.04	-55556.865	-105063.93	-18671.04	0.0	0.0	0.0	0.0	0.0	0.0	0.0	0.0	0.0	0.0	0.0	0.0	0.0	0.0	146.13793103448276	0.0	0.034240635	0.013244595	1.020322095	1.70912	0.7019599999999999	0.06104	3309597.0	1776545009.763552	0.0	1.0	-1.0	-1.0	-1.0	-1.0	-1.0	-1.0	-1.0	-1.0	0.0	marker	peace	Peace	29	0418
-68951.16	-55570.454999999994	-105095.295	-18725.535	0.0	0.0	0.0	0.0	0.0	0.0	0.0	0.0	0.0	0.0	0.0	0.0	0.0	0.0	146.13793103448276	0.0	0.034240635	0.013244595	1.020322095	1.70912	0.7019599999999999	0.06104	3309598.0	1776545009.767818	0.0	1.0	-1.0	-1.0	-1.0	-1.0	-1.0	-1.0	-1.0	-1.0	0.0	marker	peace	Peace	29	0418
-68900.22	-55566.945	-105051.64499999999	-18695.835	0.0	0.0	0.0	0.0	0.0	0.0	0.0	0.0	0.0	0.0	0.0	0.0	0.0	0.0	146.13793103448276	0.0	0.034240635	0.013244595	1.020322095	1.70912	0.7019599999999999	0.06104	3309599.0	1776545009.767854	0.0	1.0	-1.0	-1.0	-1.0	-1.0	-1.0	-1.0	-1.0	-1.0	0.0	marker	peace	Peace	29	0418
-68921.505	-55567.079999999994	-105031.34999999999	-18648.405	0.0	0.0	0.0	0.0	0.0	0.0	0.0	0.0	0.0	0.0	0.0	0.0	0.0	0.0	146.13793103448276	0.0	0.035217195	0.01000974	1.02392316	1.9838	0.12208	-0.04578	3309600.0	1776545009.776309	0.0	1.0	-1.0	-1.0	-1.0	-1.0	-1.0	-1.0	-1.0	-1.0	0.0	marker	peace	Peace	29	0418
-68938.245	-55554.975	-105069.015	-18707.805	0.0	0.0	0.0	0.0	0.0	0.0	0.0	0.0	0.0	0.0	0.0	0.0	0.0	0.0	146.13793103448276	0.0	0.035217195	0.01000974	1.02392316	1.9838	0.12208	-0.04578	3309601.0	1776545009.776329	0.0	1.0	-1.0	-1.0	-1.0	-1.0	-1.0	-1.0	-1.0	-1.0	0.0	marker	peace	Peace	29	0418
-68926.455	-55536.345	-105072.39	-18732.149999999998	0.0	0.0	0.0	0.0	0.0	0.0	0.0	0.0	0.0	0.0	0.0	0.0	0.0	0.0	146.13793103448276	0.0	0.035217195	0.01000974	1.02392316	1.9838	0.12208	-0.04578	3309602.0	1776545009.776356	0.0	1.0	-1.0	-1.0	-1.0	-1.0	-1.0	-1.0	-1.0	-1.0	0.0	marker	peace	Peace	29	0418
-68939.19	-55527.165	-105100.29	-18731.52	0.0	0.0	0.0	0.0	0.0	0.0	0.0	0.0	0.0	0.0	0.0	0.0	0.0	0.0	146.13793103448276	0.0	0.035217195	0.01000974	1.02392316	1.9838	0.12208	-0.04578	3309603.0	1776545009.776364	0.0	1.0	-1.0	-1.0	-1.0	-1.0	-1.0	-1.0	-1.0	-1.0	0.0	marker	peace	Peace	29	0418
-68930.235	-55526.174999999996	-105109.33499999999	-18713.565	0.0	0.0	0.0	0.0	0.0	0.0	0.0	0.0	0.0	0.0	0.0	0.0	0.0	0.0	146.13793103448276	0.0	0.035217195	0.01000974	1.02392316	1.9838	0.12208	-0.04578	3309604.0	1776545009.779531	0.0	1.0	-1.0	-1.0	-1.0	-1.0	-1.0	-1.0	-1.0	-1.0	0.0	marker	peace	Peace	29	0418
-68928.93	-55526.625	-105097.40999999999	-18704.024999999998	0.0	0.0	0.0	0.0	0.0	0.0	0.0	0.0	0.0	0.0	0.0	0.0	0.0	0.0	146.13793103448276	0.0	0.035217195	0.01000974	1.02392316	1.9838	0.12208	-0.04578	3309605.0	1776545009.779553	0.0	1.0	-1.0	-1.0	-1.0	-1.0	-1.0	-1.0	-1.0	-1.0	0.0	marker	peace	Peace	29	0418
-68970.51	-55533.195	-105138.26999999999	-18738.989999999998	0.0	0.0	0.0	0.0	0.0	0.0	0.0	0.0	0.0	0.0	0.0	0.0	0.0	0.0	146.13793103448276	0.0	0.035217195	0.01000974	1.02392316	1.9838	0.12208	-0.04578	3309606.0	1776545009.787904	0.0	1.0	-1.0	-1.0	-1.0	-1.0	-1.0	-1.0	-1.0	-1.0	0.0	marker	peace	Peace	29	0418
-68965.155	-55538.325	-105115.995	-18736.065	0.0	0.0	0.0	0.0	0.0	0.0	0.0	0.0	0.0	0.0	0.0	0.0	0.0	0.0	146.13793103448276	0.0	0.035217195	0.01000974	1.02392316	1.9838	0.12208	-0.04578	3309607.0	1776545009.787936	0.0	1.0	-1.0	-1.0	-1.0	-1.0	-1.0	-1.0	-1.0	-1.0	0.0	marker	peace	Peace	29	0418
-68871.06	-55527.884999999995	-104998.59	-18646.469999999998	0.0	0.0	0.0	0.0	0.0	0.0	0.0	0.0	0.0	0.0	0.0	0.0	0.0	0.0	146.13793103448276	0.0	0.035217195	0.01000974	1.02392316	1.9838	0.12208	-0.04578	3309608.0	1776545009.787973	0.0	1.0	-1.0	-1.0	-1.0	-1.0	-1.0	-1.0	-1.0	-1.0	0.0	marker	peace	Peace	29	0418
-68906.025	-55522.755	-105067.53	-18692.954999999998	0.0	0.0	0.0	0.0	0.0	0.0	0.0	0.0	0.0	0.0	0.0	0.0	0.0	0.0	146.13793103448276	0.0	0.035217195	0.01000974	1.02392316	1.9838	0.12208	-0.04578	3309609.0	1776545009.78799	0.0	1.0	-1.0	-1.0	-1.0	-1.0	-1.0	-1.0	-1.0	-1.0	0.0	marker	peace	Peace	29	0418
-68980.635	-55523.97	-105141.015	-18735.75	0.0	0.0	0.0	0.0	0.0	0.0	0.0	0.0	0.0	0.0	0.0	0.0	0.0	0.0	146.13793103448276	0.0	0.03405753	0.00659178	1.021054515	2.48738	-0.15259999999999999	-0.16785999999999998	3309610.0	1776545009.791603	0.0	1.0	-1.0	-1.0	-1.0	-1.0	-1.0	-1.0	-1.0	-1.0	0.0	marker	peace	Peace	29	0418
-68948.55	-55512.09	-105113.565	-18710.325	0.0	0.0	0.0	0.0	0.0	0.0	0.0	0.0	0.0	0.0	0.0	0.0	0.0	0.0	146.13793103448276	0.0	0.03405753	0.00659178	1.021054515	2.48738	-0.15259999999999999	-0.16785999999999998	3309611.0	1776545009.791617	0.0	1.0	-1.0	-1.0	-1.0	-1.0	-1.0	-1.0	-1.0	-1.0	0.0	marker	peace	Peace	29	0418
-68941.34999999999	-55507.725	-105100.2	-18703.98	0.0	0.0	0.0	0.0	0.0	0.0	0.0	0.0	0.0	0.0	0.0	0.0	0.0	0.0	146.13793103448276	0.0	0.03405753	0.00659178	1.021054515	2.48738	-0.15259999999999999	-0.16785999999999998	3309612.0	1776545009.797889	0.0	1.0	-1.0	-1.0	-1.0	-1.0	-1.0	-1.0	-1.0	-1.0	0.0	marker	peace	Peace	29	0418
-68962.815	-55506.375	-105114.28499999999	-18716.715	0.0	0.0	0.0	0.0	0.0	0.0	0.0	0.0	0.0	0.0	0.0	0.0	0.0	0.0	146.13793103448276	0.0	0.03405753	0.00659178	1.021054515	2.48738	-0.15259999999999999	-0.16785999999999998	3309613.0	1776545009.79822	0.0	1.0	-1.0	-1.0	-1.0	-1.0	-1.0	-1.0	-1.0	-1.0	0.0	marker	peace	Peace	29	0418
-68965.02	-55511.46	-105107.67	-18713.43	0.0	0.0	0.0	0.0	0.0	0.0	0.0	0.0	0.0	0.0	0.0	0.0	0.0	0.0	146.13793103448276	0.0	0.03405753	0.00659178	1.021054515	2.48738	-0.15259999999999999	-0.16785999999999998	3309614.0	1776545009.799774	0.0	1.0	-1.0	-1.0	-1.0	-1.0	-1.0	-1.0	-1.0	-1.0	0.0	marker	peace	Peace	29	0418
-68933.655	-55523.744999999995	-105073.73999999999	-18702.989999999998	0.0	0.0	0.0	0.0	0.0	0.0	0.0	0.0	0.0	0.0	0.0	0.0	0.0	0.0	146.13793103448276	0.0	0.03405753	0.00659178	1.021054515	2.48738	-0.15259999999999999	-0.16785999999999998	3309615.0	1776545009.799789	0.0	1.0	-1.0	-1.0	-1.0	-1.0	-1.0	-1.0	-1.0	-1.0	0.0	marker	peace	Peace	29	0418
-68923.53	-55530.045	-105075.675	-18713.969999999998	0.0	0.0	0.0	0.0	0.0	0.0	0.0	0.0	0.0	0.0	0.0	0.0	0.0	0.0	146.13793103448276	0.0	0.03405753	0.00659178	1.021054515	2.48738	-0.15259999999999999	-0.16785999999999998	3309616.0	1776545009.803804	0.0	1.0	-1.0	-1.0	-1.0	-1.0	-1.0	-1.0	-1.0	-1.0	0.0	marker	peace	Peace	29	0418
-68909.31	-55536.435	-105070.095	-18694.305	0.0	0.0	0.0	0.0	0.0	0.0	0.0	0.0	0.0	0.0	0.0	0.0	0.0	0.0	146.13793103448276	0.0	0.03405753	0.00659178	1.021054515	2.48738	-0.15259999999999999	-0.16785999999999998	3309617.0	1776545009.80383	0.0	1.0	-1.0	-1.0	-1.0	-1.0	-1.0	-1.0	-1.0	-1.0	0.0	marker	peace	Peace	29	0418
-68865.56999999999	-55538.685	-105026.94	-18640.665	0.0	0.0	0.0	0.0	0.0	0.0	0.0	0.0	0.0	0.0	0.0	0.0	0.0	0.0	146.13793103448276	0.0	0.03405753	0.00659178	1.021054515	2.48738	-0.15259999999999999	-0.16785999999999998	3309618.0	1776545009.807867	0.0	1.0	-1.0	-1.0	-1.0	-1.0	-1.0	-1.0	-1.0	-1.0	0.0	marker	peace	Peace	29	0418
-68790.69	-55536.704999999994	-104970.87	-18588.195	0.0	0.0	0.0	0.0	0.0	0.0	0.0	0.0	0.0	0.0	0.0	0.0	0.0	0.0	146.13793103448276	0.0	0.03405753	0.00659178	1.021054515	2.48738	-0.15259999999999999	-0.16785999999999998	3309619.0	1776545009.807888	0.0	1.0	-1.0	-1.0	-1.0	-1.0	-1.0	-1.0	-1.0	-1.0	0.0	marker	peace	Peace	29	0418
-68929.785	-55549.53	-105103.845	-18726.165	0.0	0.0	0.0	0.0	0.0	0.0	0.0	0.0	0.0	0.0	0.0	0.0	0.0	0.0	146.13793103448276	0.0	0.034362705	0.00280761	1.01635482	3.67766	0.0	-0.9156	3309620.0	1776545009.81206	0.0	1.0	-1.0	-1.0	-1.0	-1.0	-1.0	-1.0	-1.0	-1.0	0.0	marker	peace	Peace	29	0418
-68995.44	-55549.755	-105138.495	-18762.344999999998	0.0	0.0	0.0	0.0	0.0	0.0	0.0	0.0	0.0	0.0	0.0	0.0	0.0	0.0	146.13793103448276	0.0	0.034362705	0.00280761	1.01635482	3.67766	0.0	-0.9156	3309621.0	1776545009.812132	0.0	1.0	-1.0	-1.0	-1.0	-1.0	-1.0	-1.0	-1.0	-1.0	0.0	marker	peace	Peace	29	0418
-68960.79	-55551.869999999995	-105103.39499999999	-18723.239999999998	0.0	0.0	0.0	0.0	0.0	0.0	0.0	0.0	0.0	0.0	0.0	0.0	0.0	0.0	146.13793103448276	0.0	0.034362705	0.00280761	1.01635482	3.67766	0.0	-0.9156	3309622.0	1776545009.816673	0.0	1.0	-1.0	-1.0	-1.0	-1.0	-1.0	-1.0	-1.0	-1.0	0.0	marker	peace	Peace	29	0418
-68912.145	-55551.329999999994	-105049.305	-18680.85	0.0	0.0	0.0	0.0	0.0	0.0	0.0	0.0	0.0	0.0	0.0	0.0	0.0	0.0	146.13793103448276	0.0	0.034362705	0.00280761	1.01635482	3.67766	0.0	-0.9156	3309623.0	1776545009.816701	0.0	1.0	-1.0	-1.0	-1.0	-1.0	-1.0	-1.0	-1.0	-1.0	0.0	marker	peace	Peace	29	0418
-68930.145	-55547.685	-105059.87999999999	-18692.1	0.0	0.0	0.0	0.0	0.0	0.0	0.0	0.0	0.0	0.0	0.0	0.0	0.0	0.0	146.13793103448276	0.0	0.034362705	0.00280761	1.01635482	3.67766	0.0	-0.9156	3309624.0	1776545009.820514	0.0	1.0	-1.0	-1.0	-1.0	-1.0	-1.0	-1.0	-1.0	-1.0	0.0	marker	peace	Peace	29	0418
-68935.68	-55552.68	-105076.53	-18697.14	0.0	0.0	0.0	0.0	0.0	0.0	0.0	0.0	0.0	0.0	0.0	0.0	0.0	0.0	146.13793103448276	0.0	0.034362705	0.00280761	1.01635482	3.67766	0.0	-0.9156	3309625.0	1776545009.820533	0.0	1.0	-1.0	-1.0	-1.0	-1.0	-1.0	-1.0	-1.0	-1.0	0.0	marker	peace	Peace	29	0418
-68933.385	-55536.21	-105084.18	-18711.899999999998	0.0	0.0	0.0	0.0	0.0	0.0	0.0	0.0	0.0	0.0	0.0	0.0	0.0	0.0	146.13793103448276	0.0	0.034362705	0.00280761	1.01635482	3.67766	0.0	-0.9156	3309626.0	1776545009.935667	0.0	1.0	-1.0	-1.0	-1.0	-1.0	-1.0	-1.0	-1.0	-1.0	0.0	marker	peace	Peace	29	0418
-68944.36499999999	-55515.689999999995	-105096.915	-18724.005	0.0	0.0	0.0	0.0	0.0	0.0	0.0	0.0	0.0	0.0	0.0	0.0	0.0	0.0	146.13793103448276	0.0	0.034362705	0.00280761	1.01635482	3.67766	0.0	-0.9156	3309627.0	1776545009.935703	0.0	1.0	-1.0	-1.0	-1.0	-1.0	-1.0	-1.0	-1.0	-1.0	0.0	marker	peace	Peace	29	0418
-68939.28	-55501.604999999996	-105076.53	-18698.445	0.0	0.0	0.0	0.0	0.0	0.0	0.0	0.0	0.0	0.0	0.0	0.0	0.0	0.0	146.13793103448276	0.0	0.034362705	0.00280761	1.01635482	3.67766	0.0	-0.9156	3309628.0	1776545009.935767	0.0	1.0	-1.0	-1.0	-1.0	-1.0	-1.0	-1.0	-1.0	-1.0	0.0	marker	peace	Peace	29	0418
-68935.095	-55502.28	-105088.59	-18711.045	0.0	0.0	0.0	0.0	0.0	0.0	0.0	0.0	0.0	0.0	0.0	0.0	0.0	0.0	146.13793103448276	0.0	0.034362705	0.00280761	1.01635482	3.67766	0.0	-0.9156	3309629.0	1776545009.935784	0.0	1.0	-1.0	-1.0	-1.0	-1.0	-1.0	-1.0	-1.0	-1.0	0.0	marker	peace	Peace	29	0418
-68934.19499999999	-55509.075	-105073.37999999999	-18703.035	0.0	0.0	0.0	0.0	0.0	0.0	0.0	0.0	0.0	0.0	0.0	0.0	0.0	0.0	146.13793103448276	0.0	0.03356925	0.000549315	1.01513412	5.0358	0.30519999999999997	-1.4191799999999999	3309630.0	1776545009.935838	0.0	1.0	-1.0	-1.0	-1.0	-1.0	-1.0	-1.0	-1.0	-1.0	0.0	marker	peace	Peace	29	0418
-68922.63	-55516.005	-105029.19	-18684.405	0.0	0.0	0.0	0.0	0.0	0.0	0.0	0.0	0.0	0.0	0.0	0.0	0.0	0.0	146.13793103448276	0.0	0.03356925	0.000549315	1.01513412	5.0358	0.30519999999999997	-1.4191799999999999	3309631.0	1776545009.935852	0.0	1.0	-1.0	-1.0	-1.0	-1.0	-1.0	-1.0	-1.0	-1.0	0.0	marker	peace	Peace	29	0418
-68942.47499999999	-55519.02	-105048.22499999999	-18713.16	0.0	0.0	0.0	0.0	0.0	0.0	0.0	0.0	0.0	0.0	0.0	0.0	0.0	0.0	146.13793103448276	0.0	0.03356925	0.000549315	1.01513412	5.0358	0.30519999999999997	-1.4191799999999999	3309632.0	1776545009.935877	0.0	1.0	-1.0	-1.0	-1.0	-1.0	-1.0	-1.0	-1.0	-1.0	0.0	marker	peace	Peace	29	0418
-68951.025	-55519.604999999996	-105054.56999999999	-18702.27	0.0	0.0	0.0	0.0	0.0	0.0	0.0	0.0	0.0	0.0	0.0	0.0	0.0	0.0	146.13793103448276	0.0	0.03356925	0.000549315	1.01513412	5.0358	0.30519999999999997	-1.4191799999999999	3309633.0	1776545009.935887	0.0	1.0	-1.0	-1.0	-1.0	-1.0	-1.0	-1.0	-1.0	-1.0	0.0	marker	peace	Peace	29	0418
-68922.27	-55526.579999999994	-105093.54	-18690.255	0.0	0.0	0.0	0.0	0.0	0.0	0.0	0.0	0.0	0.0	0.0	0.0	0.0	0.0	146.13793103448276	0.0	0.03356925	0.000549315	1.01513412	5.0358	0.30519999999999997	-1.4191799999999999	3309634.0	1776545009.935899	0.0	1.0	-1.0	-1.0	-1.0	-1.0	-1.0	-1.0	-1.0	-1.0	0.0	marker	peace	Peace	29	0418
-68877.675	-55531.575	-105093.94499999999	-18662.94	0.0	0.0	0.0	0.0	0.0	0.0	0.0	0.0	0.0	0.0	0.0	0.0	0.0	0.0	146.13793103448276	0.0	0.03356925	0.000549315	1.01513412	5.0358	0.30519999999999997	-1.4191799999999999	3309635.0	1776545009.935908	0.0	1.0	-1.0	-1.0	-1.0	-1.0	-1.0	-1.0	-1.0	-1.0	0.0	marker	peace	Peace	29	0418
-68940.405	-55530.314999999995	-105152.94	-18732.375	0.0	0.0	0.0	0.0	0.0	0.0	0.0	0.0	0.0	0.0	0.0	0.0	0.0	0.0	146.13793103448276	0.0	0.03356925	0.000549315	1.01513412	5.0358	0.30519999999999997	-1.4191799999999999	3309636.0	1776545009.93592	0.0	1.0	-1.0	-1.0	-1.0	-1.0	-1.0	-1.0	-1.0	-1.0	0.0	marker	peace	Peace	29	0418
-68938.065	-55522.215	-105115.995	-18739.62	0.0	0.0	0.0	0.0	0.0	0.0	0.0	0.0	0.0	0.0	0.0	0.0	0.0	0.0	146.13793103448276	0.0	0.03356925	0.000549315	1.01513412	5.0358	0.30519999999999997	-1.4191799999999999	3309637.0	1776545009.935928	0.0	1.0	-1.0	-1.0	-1.0	-1.0	-1.0	-1.0	-1.0	-1.0	0.0	marker	peace	Peace	29	0418
-68918.44499999999	-55519.335	-105057.94499999999	-18717.57	0.0	0.0	0.0	0.0	0.0	0.0	0.0	0.0	0.0	0.0	0.0	0.0	0.0	0.0	146.13793103448276	0.0	0.03356925	0.000549315	1.01513412	5.0358	0.30519999999999997	-1.4191799999999999	3309638.0	1776545009.935949	0.0	1.0	-1.0	-1.0	-1.0	-1.0	-1.0	-1.0	-1.0	-1.0	0.0	marker	peace	Peace	29	0418
-68948.685	-55523.564999999995	-105069.06	-18707.489999999998	0.0	0.0	0.0	0.0	0.0	0.0	0.0	0.0	0.0	0.0	0.0	0.0	0.0	0.0	146.13793103448276	0.0	0.03356925	0.000549315	1.01513412	5.0358	0.30519999999999997	-1.4191799999999999	3309639.0	1776545009.935957	0.0	1.0	-1.0	-1.0	-1.0	-1.0	-1.0	-1.0	-1.0	-1.0	0.0	marker	peace	Peace	29	0418
-68939.415	-55533.689999999995	-105076.215	-18687.149999999998	0.0	0.0	0.0	0.0	0.0	0.0	0.0	0.0	0.0	0.0	0.0	0.0	0.0	0.0	146.13793103448276	0.0	0.03515616	0.007019025	1.017148275	4.51696	0.42728	-1.55652	3309640.0	1776545009.935968	0.0	1.0	-1.0	-1.0	-1.0	-1.0	-1.0	-1.0	-1.0	-1.0	0.0	marker	peace	Peace	29	0418
-68917.095	-55537.424999999996	-105062.94	-18670.364999999998	0.0	0.0	0.0	0.0	0.0	0.0	0.0	0.0	0.0	0.0	0.0	0.0	0.0	0.0	146.13793103448276	0.0	0.03515616	0.007019025	1.017148275	4.51696	0.42728	-1.55652	3309641.0	1776545009.935977	0.0	1.0	-1.0	-1.0	-1.0	-1.0	-1.0	-1.0	-1.0	-1.0	0.0	marker	peace	Peace	29	0418
-68931.495	-55542.465	-105065.595	-18688.905	0.0	0.0	0.0	0.0	0.0	0.0	0.0	0.0	0.0	0.0	0.0	0.0	0.0	0.0	146.13793103448276	0.0	0.03515616	0.007019025	1.017148275	4.51696	0.42728	-1.55652	3309642.0	1776545009.935987	0.0	1.0	-1.0	-1.0	-1.0	-1.0	-1.0	-1.0	-1.0	-1.0	0.0	marker	peace	Peace	29	0418
-68945.31	-55521.045	-105102.405	-18716.579999999998	0.0	0.0	0.0	0.0	0.0	0.0	0.0	0.0	0.0	0.0	0.0	0.0	0.0	0.0	146.13793103448276	0.0	0.03515616	0.007019025	1.017148275	4.51696	0.42728	-1.55652	3309643.0	1776545009.935996	0.0	1.0	-1.0	-1.0	-1.0	-1.0	-1.0	-1.0	-1.0	-1.0	0.0	marker	peace	Peace	29	0418
-68962.86	-55454.715	-105119.86499999999	-18726.075	0.0	0.0	0.0	0.0	0.0	0.0	0.0	0.0	0.0	0.0	0.0	0.0	0.0	0.0	146.13793103448276	0.0	0.03515616	0.007019025	1.017148275	4.51696	0.42728	-1.55652	3309644.0	1776545009.936036	0.0	1.0	-1.0	-1.0	-1.0	-1.0	-1.0	-1.0	-1.0	-1.0	0.0	marker	peace	Peace	29	0418
-68959.665	-55432.439999999995	-105095.87999999999	-18711.315	0.0	0.0	0.0	0.0	0.0	0.0	0.0	0.0	0.0	0.0	0.0	0.0	0.0	0.0	146.13793103448276	0.0	0.03515616	0.007019025	1.017148275	4.51696	0.42728	-1.55652	3309645.0	1776545009.936047	0.0	1.0	-1.0	-1.0	-1.0	-1.0	-1.0	-1.0	-1.0	-1.0	0.0	marker	peace	Peace	29	0418
-68960.52	-55433.924999999996	-105110.01	-18717.12	0.0	0.0	0.0	0.0	0.0	0.0	0.0	0.0	0.0	0.0	0.0	0.0	0.0	0.0	146.13793103448276	0.0	0.03515616	0.007019025	1.017148275	4.51696	0.42728	-1.55652	3309646.0	1776545009.93606	0.0	1.0	-1.0	-1.0	-1.0	-1.0	-1.0	-1.0	-1.0	-1.0	0.0	marker	peace	Peace	29	0418
-68934.105	-55442.97	-105102.765	-18714.51	0.0	0.0	0.0	0.0	0.0	0.0	0.0	0.0	0.0	0.0	0.0	0.0	0.0	0.0	146.13793103448276	0.0	0.03515616	0.007019025	1.017148275	4.51696	0.42728	-1.55652	3309647.0	1776545009.936069	0.0	1.0	-1.0	-1.0	-1.0	-1.0	-1.0	-1.0	-1.0	-1.0	0.0	marker	peace	Peace	29	0418
-68910.97499999999	-55451.655	-105079.36499999999	-18694.215	0.0	0.0	0.0	0.0	0.0	0.0	0.0	0.0	0.0	0.0	0.0	0.0	0.0	0.0	146.13793103448276	0.0	0.03515616	0.007019025	1.017148275	4.51696	0.42728	-1.55652	3309648.0	1776545009.936098	0.0	1.0	-1.0	-1.0	-1.0	-1.0	-1.0	-1.0	-1.0	-1.0	0.0	marker	peace	Peace	29	0418
-68895.18	-55461.6	-105045.65999999999	-18661.86	0.0	0.0	0.0	0.0	0.0	0.0	0.0	0.0	0.0	0.0	0.0	0.0	0.0	0.0	146.13793103448276	0.0	0.03515616	0.007019025	1.017148275	4.51696	0.42728	-1.55652	3309649.0	1776545009.936107	0.0	1.0	-1.0	-1.0	-1.0	-1.0	-1.0	-1.0	-1.0	-1.0	0.0	marker	peace	Peace	29	0418
-68907.23999999999	-55454.174999999996	-105068.79	-18693.495	0.0	0.0	0.0	0.0	0.0	0.0	0.0	0.0	0.0	0.0	0.0	0.0	0.0	0.0	146.13793103448276	0.0	0.036376860000000004	0.01086423	1.020444165	4.10494	0.21364	-0.7019599999999999	3309650.0	1776545009.936119	0.0	1.0	-1.0	-1.0	-1.0	-1.0	-1.0	-1.0	-1.0	-1.0	0.0	marker	peace	Peace	29	0418
-68922.98999999999	-55441.215	-105077.06999999999	-18703.215	0.0	0.0	0.0	0.0	0.0	0.0	0.0	0.0	0.0	0.0	0.0	0.0	0.0	0.0	146.13793103448276	0.0	0.036376860000000004	0.01086423	1.020444165	4.10494	0.21364	-0.7019599999999999	3309651.0	1776545009.936128	0.0	1.0	-1.0	-1.0	-1.0	-1.0	-1.0	-1.0	-1.0	-1.0	0.0	marker	peace	Peace	29	0418
-68867.145	-55422.314999999995	-105013.53	-18643.77	0.0	0.0	0.0	0.0	0.0	0.0	0.0	0.0	0.0	0.0	0.0	0.0	0.0	0.0	146.13793103448276	0.0	0.036376860000000004	0.01086423	1.020444165	4.10494	0.21364	-0.7019599999999999	3309652.0	1776545009.936139	0.0	1.0	-1.0	-1.0	-1.0	-1.0	-1.0	-1.0	-1.0	-1.0	0.0	marker	peace	Peace	29	0418
-68958.98999999999	-55420.875	-105100.155	-18736.155	0.0	0.0	0.0	0.0	0.0	0.0	0.0	0.0	0.0	0.0	0.0	0.0	0.0	0.0	146.13793103448276	0.0	0.036376860000000004	0.01086423	1.020444165	4.10494	0.21364	-0.7019599999999999	3309653.0	1776545009.936148	0.0	1.0	-1.0	-1.0	-1.0	-1.0	-1.0	-1.0	-1.0	-1.0	0.0	marker	peace	Peace	29	0418
-68965.69499999999	-55423.53	-105107.985	-18725.399999999998	0.0	0.0	0.0	0.0	0.0	0.0	0.0	0.0	0.0	0.0	0.0	0.0	0.0	0.0	146.13793103448276	0.0	0.036376860000000004	0.01086423	1.020444165	4.10494	0.21364	-0.7019599999999999	3309654.0	1776545009.936181	0.0	1.0	-1.0	-1.0	-1.0	-1.0	-1.0	-1.0	-1.0	-1.0	0.0	marker	peace	Peace	29	0418
-68938.605	-55418.13	-105078.105	-18692.55	0.0	0.0	0.0	0.0	0.0	0.0	0.0	0.0	0.0	0.0	0.0	0.0	0.0	0.0	146.13793103448276	0.0	0.036376860000000004	0.01086423	1.020444165	4.10494	0.21364	-0.7019599999999999	3309655.0	1776545009.93619	0.0	1.0	-1.0	-1.0	-1.0	-1.0	-1.0	-1.0	-1.0	-1.0	0.0	marker	peace	Peace	29	0418
-68959.215	-55423.89	-105104.925	-18723.87	0.0	0.0	0.0	0.0	0.0	0.0	0.0	0.0	0.0	0.0	0.0	0.0	0.0	0.0	146.13793103448276	0.0	0.036376860000000004	0.01086423	1.020444165	4.10494	0.21364	-0.7019599999999999	3309656.0	1776545009.936202	0.0	1.0	-1.0	-1.0	-1.0	-1.0	-1.0	-1.0	-1.0	-1.0	0.0	marker	peace	Peace	29	0418
-68958.315	-55431.99	-105124.95	-18730.079999999998	0.0	0.0	0.0	0.0	0.0	0.0	0.0	0.0	0.0	0.0	0.0	0.0	0.0	0.0	146.13793103448276	0.0	0.036376860000000004	0.01086423	1.020444165	4.10494	0.21364	-0.7019599999999999	3309657.0	1776545009.93621	0.0	1.0	-1.0	-1.0	-1.0	-1.0	-1.0	-1.0	-1.0	-1.0	0.0	marker	peace	Peace	29	0418
-68926.14	-55428.659999999996	-105090.165	-18708.93	0.0	0.0	0.0	0.0	0.0	0.0	0.0	0.0	0.0	0.0	0.0	0.0	0.0	0.0	146.13793103448276	0.0	0.036376860000000004	0.01086423	1.020444165	4.10494	0.21364	-0.7019599999999999	3309658.0	1776545009.936222	0.0	1.0	-1.0	-1.0	-1.0	-1.0	-1.0	-1.0	-1.0	-1.0	0.0	marker	peace	Peace	29	0418
-68906.295	-55416.78	-105068.655	-18674.145	0.0	0.0	0.0	0.0	0.0	0.0	0.0	0.0	0.0	0.0	0.0	0.0	0.0	0.0	146.13793103448276	0.0	0.036376860000000004	0.01086423	1.020444165	4.10494	0.21364	-0.7019599999999999	3309659.0	1776545009.93623	0.0	1.0	-1.0	-1.0	-1.0	-1.0	-1.0	-1.0	-1.0	-1.0	0.0	marker	peace	Peace	29	0418
-68975.01	-55409.625	-105125.58	-18737.145	0.0	0.0	0.0	0.0	0.0	0.0	0.0	0.0	0.0	0.0	0.0	0.0	0.0	0.0	146.13793103448276	0.0	0.03759756	0.015563925000000001	1.0173313800000001	0.51884	0.19838	-0.59514	3309660.0	1776545009.936249	0.0	1.0	-1.0	-1.0	-1.0	-1.0	-1.0	-1.0	-1.0	-1.0	0.0	marker	peace	Peace	29	0418
-68970.015	-55402.515	-105111.81	-18746.64	0.0	0.0	0.0	0.0	0.0	0.0	0.0	0.0	0.0	0.0	0.0	0.0	0.0	0.0	146.13793103448276	0.0	0.03759756	0.015563925000000001	1.0173313800000001	0.51884	0.19838	-0.59514	3309661.0	1776545009.936258	0.0	1.0	-1.0	-1.0	-1.0	-1.0	-1.0	-1.0	-1.0	-1.0	0.0	marker	peace	Peace	29	0418
-68887.755	-55421.415	-105021.765	-18675.0	0.0	0.0	0.0	0.0	0.0	0.0	0.0	0.0	0.0	0.0	0.0	0.0	0.0	0.0	146.13793103448276	0.0	0.03759756	0.015563925000000001	1.0173313800000001	0.51884	0.19838	-0.59514	3309662.0	1776545009.936268	0.0	1.0	-1.0	-1.0	-1.0	-1.0	-1.0	-1.0	-1.0	-1.0	0.0	marker	peace	Peace	29	0418
-68877.27	-55443.915	-105016.86	-18665.37	0.0	0.0	0.0	0.0	0.0	0.0	0.0	0.0	0.0	0.0	0.0	0.0	0.0	0.0	146.13793103448276	0.0	0.03759756	0.015563925000000001	1.0173313800000001	0.51884	0.19838	-0.59514	3309663.0	1776545009.936277	0.0	1.0	-1.0	-1.0	-1.0	-1.0	-1.0	-1.0	-1.0	-1.0	0.0	marker	peace	Peace	29	0418
-68936.355	-55451.384999999995	-105083.415	-18724.274999999998	0.0	0.0	0.0	0.0	0.0	0.0	0.0	0.0	0.0	0.0	0.0	0.0	0.0	0.0	146.13793103448276	0.0	0.03759756	0.015563925000000001	1.0173313800000001	0.51884	0.19838	-0.59514	3309664.0	1776545009.936287	0.0	1.0	-1.0	-1.0	-1.0	-1.0	-1.0	-1.0	-1.0	-1.0	0.0	marker	peace	Peace	29	0418
-68951.97	-55460.97	-105120.0	-18728.19	0.0	0.0	0.0	0.0	0.0	0.0	0.0	0.0	0.0	0.0	0.0	0.0	0.0	0.0	146.13793103448276	0.0	0.03759756	0.015563925000000001	1.0173313800000001	0.51884	0.19838	-0.59514	3309665.0	1776545009.936296	0.0	1.0	-1.0	-1.0	-1.0	-1.0	-1.0	-1.0	-1.0	-1.0	0.0	marker	peace	Peace	29	0418
-68928.61499999999	-55459.215	-105115.095	-18696.735	0.0	0.0	0.0	0.0	0.0	0.0	0.0	0.0	0.0	0.0	0.0	0.0	0.0	0.0	146.13793103448276	0.0	0.03759756	0.015563925000000001	1.0173313800000001	0.51884	0.19838	-0.59514	3309666.0	1776545009.936307	0.0	1.0	-1.0	-1.0	-1.0	-1.0	-1.0	-1.0	-1.0	-1.0	0.0	marker	peace	Peace	29	0418
-68873.985	-55448.28	-105043.86	-18648.18	0.0	0.0	0.0	0.0	0.0	0.0	0.0	0.0	0.0	0.0	0.0	0.0	0.0	0.0	146.13793103448276	0.0	0.03759756	0.015563925000000001	1.0173313800000001	0.51884	0.19838	-0.59514	3309667.0	1776545009.936315	0.0	1.0	-1.0	-1.0	-1.0	-1.0	-1.0	-1.0	-1.0	-1.0	0.0	marker	peace	Peace	29	0418
-68892.66	-55428.884999999995	-105051.64499999999	-18672.344999999998	0.0	0.0	0.0	0.0	0.0	0.0	0.0	0.0	0.0	0.0	0.0	0.0	0.0	0.0	146.13793103448276	0.0	0.03759756	0.015563925000000001	1.0173313800000001	0.51884	0.19838	-0.59514	3309668.0	1776545009.936325	0.0	1.0	-1.0	-1.0	-1.0	-1.0	-1.0	-1.0	-1.0	-1.0	0.0	marker	peace	Peace	29	0418
-68987.88	-55421.009999999995	-105089.985	-18724.59	0.0	0.0	0.0	0.0	0.0	0.0	0.0	0.0	0.0	0.0	0.0	0.0	0.0	0.0	146.13793103448276	0.0	0.03759756	0.015563925000000001	1.0173313800000001	0.51884	0.19838	-0.59514	3309669.0	1776545009.936334	0.0	1.0	-1.0	-1.0	-1.0	-1.0	-1.0	-1.0	-1.0	-1.0	0.0	marker	peace	Peace	29	0418
-68946.165	-55419.299999999996	-105078.375	-18704.475	0.0	0.0	0.0	0.0	0.0	0.0	0.0	0.0	0.0	0.0	0.0	0.0	0.0	0.0	146.13793103448276	0.0	0.038146875000000004	0.011779755	1.010556495	2.91466	0.6714399999999999	-0.6714399999999999	3309670.0	1776545009.936401	0.0	1.0	-1.0	-1.0	-1.0	-1.0	-1.0	-1.0	-1.0	-1.0	0.0	marker	peace	Peace	29	0418
-68930.86499999999	-55424.52	-105107.67	-18716.085	0.0	0.0	0.0	0.0	0.0	0.0	0.0	0.0	0.0	0.0	0.0	0.0	0.0	0.0	146.13793103448276	0.0	0.038146875000000004	0.011779755	1.010556495	2.91466	0.6714399999999999	-0.6714399999999999	3309671.0	1776545009.93641	0.0	1.0	-1.0	-1.0	-1.0	-1.0	-1.0	-1.0	-1.0	-1.0	0.0	marker	peace	Peace	29	0418
-68950.08	-55434.24	-105129.62999999999	-18732.465	0.0	0.0	0.0	0.0	0.0	0.0	0.0	0.0	0.0	0.0	0.0	0.0	0.0	0.0	146.13793103448276	0.0	0.038146875000000004	0.011779755	1.010556495	2.91466	0.6714399999999999	-0.6714399999999999	3309672.0	1776545009.936421	0.0	1.0	-1.0	-1.0	-1.0	-1.0	-1.0	-1.0	-1.0	-1.0	0.0	marker	peace	Peace	29	0418
-68898.555	-55435.365	-105050.83499999999	-18664.739999999998	0.0	0.0	0.0	0.0	0.0	0.0	0.0	0.0	0.0	0.0	0.0	0.0	0.0	0.0	146.13793103448276	0.0	0.038146875000000004	0.011779755	1.010556495	2.91466	0.6714399999999999	-0.6714399999999999	3309673.0	1776545009.93643	0.0	1.0	-1.0	-1.0	-1.0	-1.0	-1.0	-1.0	-1.0	-1.0	0.0	marker	peace	Peace	29	0418
-68883.075	-55440.314999999995	-105019.29	-18643.815	0.0	0.0	0.0	0.0	0.0	0.0	0.0	0.0	0.0	0.0	0.0	0.0	0.0	0.0	146.13793103448276	0.0	0.038146875000000004	0.011779755	1.010556495	2.91466	0.6714399999999999	-0.6714399999999999	3309674.0	1776545009.936441	0.0	1.0	-1.0	-1.0	-1.0	-1.0	-1.0	-1.0	-1.0	-1.0	0.0	marker	peace	Peace	29	0418
-68952.87	-55448.1	-105080.48999999999	-18711.405	0.0	0.0	0.0	0.0	0.0	0.0	0.0	0.0	0.0	0.0	0.0	0.0	0.0	0.0	146.13793103448276	0.0	0.038146875000000004	0.011779755	1.010556495	2.91466	0.6714399999999999	-0.6714399999999999	3309675.0	1776545009.93645	0.0	1.0	-1.0	-1.0	-1.0	-1.0	-1.0	-1.0	-1.0	-1.0	0.0	marker	peace	Peace	29	0418
-68964.97499999999	-55453.095	-105099.705	-18756.495	0.0	0.0	0.0	0.0	0.0	0.0	0.0	0.0	0.0	0.0	0.0	0.0	0.0	0.0	146.13793103448276	0.0	0.038146875000000004	0.011779755	1.010556495	2.91466	0.6714399999999999	-0.6714399999999999	3309676.0	1776545009.93646	0.0	1.0	-1.0	-1.0	-1.0	-1.0	-1.0	-1.0	-1.0	-1.0	0.0	marker	peace	Peace	29	0418
-68933.295	-55450.17	-105064.78499999999	-18714.285	0.0	0.0	0.0	0.0	0.0	0.0	0.0	0.0	0.0	0.0	0.0	0.0	0.0	0.0	146.13793103448276	0.0	0.038146875000000004	0.011779755	1.010556495	2.91466	0.6714399999999999	-0.6714399999999999	3309677.0	1776545009.936469	0.0	1.0	-1.0	-1.0	-1.0	-1.0	-1.0	-1.0	-1.0	-1.0	0.0	marker	peace	Peace	29	0418
-68907.915	-55450.439999999995	-105068.83499999999	-18664.739999999998	0.0	0.0	0.0	0.0	0.0	0.0	0.0	0.0	0.0	0.0	0.0	0.0	0.0	0.0	146.13793103448276	0.0	0.038146875000000004	0.011779755	1.010556495	2.91466	0.6714399999999999	-0.6714399999999999	3309678.0	1776545009.936479	0.0	1.0	-1.0	-1.0	-1.0	-1.0	-1.0	-1.0	-1.0	-1.0	0.0	marker	peace	Peace	29	0418
-68890.72499999999	-55452.509999999995	-105078.015	-18667.485	0.0	0.0	0.0	0.0	0.0	0.0	0.0	0.0	0.0	0.0	0.0	0.0	0.0	0.0	146.13793103448276	0.0	0.038146875000000004	0.011779755	1.010556495	2.91466	0.6714399999999999	-0.6714399999999999	3309679.0	1776545009.936488	0.0	1.0	-1.0	-1.0	-1.0	-1.0	-1.0	-1.0	-1.0	-1.0	0.0	marker	peace	Peace	29	0418
-68957.415	-55465.74	-105109.605	-18703.98	0.0	0.0	0.0	0.0	0.0	0.0	0.0	0.0	0.0	0.0	0.0	0.0	0.0	0.0	146.13793103448276	0.0	0.035217195	0.00952146	1.01659896	3.9828599999999996	0.42728	-0.42728	3309680.0	1776545009.936498	0.0	1.0	-1.0	-1.0	-1.0	-1.0	-1.0	-1.0	-1.0	-1.0	0.0	marker	peace	Peace	29	0418
-68944.905	-55478.34	-105090.48	-18698.175	0.0	0.0	0.0	0.0	0.0	0.0	0.0	0.0	0.0	0.0	0.0	0.0	0.0	0.0	146.13793103448276	0.0	0.035217195	0.00952146	1.01659896	3.9828599999999996	0.42728	-0.42728	3309681.0	1776545009.936507	0.0	1.0	-1.0	-1.0	-1.0	-1.0	-1.0	-1.0	-1.0	-1.0	0.0	marker	peace	Peace	29	0418
-68914.62	-55481.354999999996	-105073.155	-18689.715	0.0	0.0	0.0	0.0	0.0	0.0	0.0	0.0	0.0	0.0	0.0	0.0	0.0	0.0	146.13793103448276	0.0	0.035217195	0.00952146	1.01659896	3.9828599999999996	0.42728	-0.42728	3309682.0	1776545009.937399	0.0	1.0	-1.0	-1.0	-1.0	-1.0	-1.0	-1.0	-1.0	-1.0	0.0	marker	peace	Peace	29	0418
-68918.31	-55480.095	-105071.04	-18690.704999999998	0.0	0.0	0.0	0.0	0.0	0.0	0.0	0.0	0.0	0.0	0.0	0.0	0.0	0.0	146.13793103448276	0.0	0.035217195	0.00952146	1.01659896	3.9828599999999996	0.42728	-0.42728	3309683.0	1776545009.93741	0.0	1.0	-1.0	-1.0	-1.0	-1.0	-1.0	-1.0	-1.0	-1.0	0.0	marker	peace	Peace	29	0418
-68930.81999999999	-55477.845	-105074.955	-18684.765	0.0	0.0	0.0	0.0	0.0	0.0	0.0	0.0	0.0	0.0	0.0	0.0	0.0	0.0	146.13793103448276	0.0	0.035217195	0.00952146	1.01659896	3.9828599999999996	0.42728	-0.42728	3309684.0	1776545009.940214	0.0	1.0	-1.0	-1.0	-1.0	-1.0	-1.0	-1.0	-1.0	-1.0	0.0	marker	peace	Peace	29	0418
-68936.535	-55472.805	-105085.26	-18705.195	0.0	0.0	0.0	0.0	0.0	0.0	0.0	0.0	0.0	0.0	0.0	0.0	0.0	0.0	146.13793103448276	0.0	0.035217195	0.00952146	1.01659896	3.9828599999999996	0.42728	-0.42728	3309685.0	1776545009.940232	0.0	1.0	-1.0	-1.0	-1.0	-1.0	-1.0	-1.0	-1.0	-1.0	0.0	marker	peace	Peace	29	0418
-68944.5	-55474.47	-105091.78499999999	-18729.27	0.0	0.0	0.0	0.0	0.0	0.0	0.0	0.0	0.0	0.0	0.0	0.0	0.0	0.0	146.13793103448276	0.0	0.035217195	0.00952146	1.01659896	3.9828599999999996	0.42728	-0.42728	3309686.0	1776545009.945598	0.0	1.0	-1.0	-1.0	-1.0	-1.0	-1.0	-1.0	-1.0	-1.0	0.0	marker	peace	Peace	29	0418
-68945.44499999999	-55478.07	-105088.635	-18713.88	0.0	0.0	0.0	0.0	0.0	0.0	0.0	0.0	0.0	0.0	0.0	0.0	0.0	0.0	146.13793103448276	0.0	0.035217195	0.00952146	1.01659896	3.9828599999999996	0.42728	-0.42728	3309687.0	1776545009.94561	0.0	1.0	-1.0	-1.0	-1.0	-1.0	-1.0	-1.0	-1.0	-1.0	0.0	marker	peace	Peace	29	0418
-68925.465	-55485.45	-105065.775	-18673.469999999998	0.0	0.0	0.0	0.0	0.0	0.0	0.0	0.0	0.0	0.0	0.0	0.0	0.0	0.0	146.13793103448276	0.0	0.035217195	0.00952146	1.01659896	3.9828599999999996	0.42728	-0.42728	3309688.0	1776545009.948304	0.0	1.0	-1.0	-1.0	-1.0	-1.0	-1.0	-1.0	-1.0	-1.0	0.0	marker	peace	Peace	29	0418
-68929.515	-55501.47	-105083.14499999999	-18682.739999999998	0.0	0.0	0.0	0.0	0.0	0.0	0.0	0.0	0.0	0.0	0.0	0.0	0.0	0.0	146.13793103448276	0.0	0.035217195	0.00952146	1.01659896	3.9828599999999996	0.42728	-0.42728	3309689.0	1776545009.948324	0.0	1.0	-1.0	-1.0	-1.0	-1.0	-1.0	-1.0	-1.0	-1.0	0.0	marker	peace	Peace	29	0418
-68920.83	-55508.579999999994	-105069.59999999999	-18677.835	0.0	0.0	0.0	0.0	0.0	0.0	0.0	0.0	0.0	0.0	0.0	0.0	0.0	0.0	146.13793103448276	0.0	0.035034090000000004	0.016052205	1.020322095	2.27374	0.27468	-0.33571999999999996	3309690.0	1776545009.95225	0.0	1.0	-1.0	-1.0	-1.0	-1.0	-1.0	-1.0	-1.0	-1.0	0.0	marker	peace	Peace	29	0418
-68918.67	-55496.61	-105064.425	-18679.995	0.0	0.0	0.0	0.0	0.0	0.0	0.0	0.0	0.0	0.0	0.0	0.0	0.0	0.0	146.13793103448276	0.0	0.035034090000000004	0.016052205	1.020322095	2.27374	0.27468	-0.33571999999999996	3309691.0	1776545009.952264	0.0	1.0	-1.0	-1.0	-1.0	-1.0	-1.0	-1.0	-1.0	-1.0	0.0	marker	peace	Peace	29	0418
-68935.77	-55497.015	-105086.295	-18701.91	0.0	0.0	0.0	0.0	0.0	0.0	0.0	0.0	0.0	0.0	0.0	0.0	0.0	0.0	146.13793103448276	0.0	0.035034090000000004	0.016052205	1.020322095	2.27374	0.27468	-0.33571999999999996	3309692.0	1776545009.956136	0.0	1.0	-1.0	-1.0	-1.0	-1.0	-1.0	-1.0	-1.0	-1.0	0.0	marker	peace	Peace	29	0418
-68905.89	-55494.854999999996	-105070.275	-18685.53	0.0	0.0	0.0	0.0	0.0	0.0	0.0	0.0	0.0	0.0	0.0	0.0	0.0	0.0	146.13793103448276	0.0	0.035034090000000004	0.016052205	1.020322095	2.27374	0.27468	-0.33571999999999996	3309693.0	1776545009.956152	0.0	1.0	-1.0	-1.0	-1.0	-1.0	-1.0	-1.0	-1.0	-1.0	0.0	marker	peace	Peace	29	0418
-68893.875	-55478.564999999995	-105062.805	-18685.665	0.0	0.0	0.0	0.0	0.0	0.0	0.0	0.0	0.0	0.0	0.0	0.0	0.0	0.0	146.13793103448276	0.0	0.035034090000000004	0.016052205	1.020322095	2.27374	0.27468	-0.33571999999999996	3309694.0	1776545010.058177	0.0	1.0	-1.0	-1.0	-1.0	-1.0	-1.0	-1.0	-1.0	-1.0	0.0	marker	peace	Peace	29	0418
-68951.745	-55467.09	-105109.2	-18725.355	0.0	0.0	0.0	0.0	0.0	0.0	0.0	0.0	0.0	0.0	0.0	0.0	0.0	0.0	146.13793103448276	0.0	0.035034090000000004	0.016052205	1.020322095	2.27374	0.27468	-0.33571999999999996	3309695.0	1776545010.058189	0.0	1.0	-1.0	-1.0	-1.0	-1.0	-1.0	-1.0	-1.0	-1.0	0.0	marker	peace	Peace	29	0418
-68956.47	-55467.945	-105095.25	-18701.505	0.0	0.0	0.0	0.0	0.0	0.0	0.0	0.0	0.0	0.0	0.0	0.0	0.0	0.0	146.13793103448276	0.0	0.035034090000000004	0.016052205	1.020322095	2.27374	0.27468	-0.33571999999999996	3309696.0	1776545010.058201	0.0	1.0	-1.0	-1.0	-1.0	-1.0	-1.0	-1.0	-1.0	-1.0	0.0	marker	peace	Peace	29	0418
-68944.36499999999	-55477.89	-105074.90999999999	-18704.07	0.0	0.0	0.0	0.0	0.0	0.0	0.0	0.0	0.0	0.0	0.0	0.0	0.0	0.0	146.13793103448276	0.0	0.035034090000000004	0.016052205	1.020322095	2.27374	0.27468	-0.33571999999999996	3309697.0	1776545010.058206	0.0	1.0	-1.0	-1.0	-1.0	-1.0	-1.0	-1.0	-1.0	-1.0	0.0	marker	peace	Peace	29	0418
-68948.37	-55495.799999999996	-105086.79	-18724.86	0.0	0.0	0.0	0.0	0.0	0.0	0.0	0.0	0.0	0.0	0.0	0.0	0.0	0.0	146.13793103448276	0.0	0.035034090000000004	0.016052205	1.020322095	2.27374	0.27468	-0.33571999999999996	3309698.0	1776545010.058221	0.0	1.0	-1.0	-1.0	-1.0	-1.0	-1.0	-1.0	-1.0	-1.0	0.0	marker	peace	Peace	29	0418
-68929.38	-55524.24	-105079.545	-18696.465	0.0	0.0	0.0	0.0	0.0	0.0	0.0	0.0	0.0	0.0	0.0	0.0	0.0	0.0	146.13793103448276	0.0	0.035034090000000004	0.016052205	1.020322095	2.27374	0.27468	-0.33571999999999996	3309699.0	1776545010.058226	0.0	1.0	-1.0	-1.0	-1.0	-1.0	-1.0	-1.0	-1.0	-1.0	0.0	marker	peace	Peace	29	0418
-68889.87	-55515.15	-105058.305	-18659.114999999998	0.0	0.0	0.0	0.0	0.0	0.0	0.0	0.0	0.0	0.0	0.0	0.0	0.0	0.0	146.13793103448276	0.0	0.037414455	0.01196286	1.01830794	1.9075	0.41202	-0.39676	3309700.0	1776545010.058241	0.0	1.0	-1.0	-1.0	-1.0	-1.0	-1.0	-1.0	-1.0	-1.0	0.0	marker	peace	Peace	29	0418
-68828.22	-55505.295	-105018.075	-18635.219999999998	0.0	0.0	0.0	0.0	0.0	0.0	0.0	0.0	0.0	0.0	0.0	0.0	0.0	0.0	146.13793103448276	0.0	0.037414455	0.01196286	1.01830794	1.9075	0.41202	-0.39676	3309701.0	1776545010.058245	0.0	1.0	-1.0	-1.0	-1.0	-1.0	-1.0	-1.0	-1.0	-1.0	0.0	marker	peace	Peace	29	0418
-68913.72	-55513.215	-105103.34999999999	-18723.015	0.0	0.0	0.0	0.0	0.0	0.0	0.0	0.0	0.0	0.0	0.0	0.0	0.0	0.0	146.13793103448276	0.0	0.037414455	0.01196286	1.01830794	1.9075	0.41202	-0.39676	3309702.0	1776545010.058271	0.0	1.0	-1.0	-1.0	-1.0	-1.0	-1.0	-1.0	-1.0	-1.0	0.0	marker	peace	Peace	29	0418
-68974.65	-55513.799999999996	-105126.3	-18733.68	0.0	0.0	0.0	0.0	0.0	0.0	0.0	0.0	0.0	0.0	0.0	0.0	0.0	0.0	146.13793103448276	0.0	0.037414455	0.01196286	1.01830794	1.9075	0.41202	-0.39676	3309703.0	1776545010.058275	0.0	1.0	-1.0	-1.0	-1.0	-1.0	-1.0	-1.0	-1.0	-1.0	0.0	marker	peace	Peace	29	0418
-68974.92	-55507.545	-105119.14499999999	-18726.48	0.0	0.0	0.0	0.0	0.0	0.0	0.0	0.0	0.0	0.0	0.0	0.0	0.0	0.0	146.13793103448276	0.0	0.037414455	0.01196286	1.01830794	1.9075	0.41202	-0.39676	3309704.0	1776545010.058292	0.0	1.0	-1.0	-1.0	-1.0	-1.0	-1.0	-1.0	-1.0	-1.0	0.0	marker	peace	Peace	29	0418
-68880.15	-55516.814999999995	-105037.92	-18664.469999999998	0.0	0.0	0.0	0.0	0.0	0.0	0.0	0.0	0.0	0.0	0.0	0.0	0.0	0.0	146.13793103448276	0.0	0.037414455	0.01196286	1.01830794	1.9075	0.41202	-0.39676	3309705.0	1776545010.058297	0.0	1.0	-1.0	-1.0	-1.0	-1.0	-1.0	-1.0	-1.0	-1.0	0.0	marker	peace	Peace	29	0418
-68872.905	-55532.52	-105014.87999999999	-18644.445	0.0	0.0	0.0	0.0	0.0	0.0	0.0	0.0	0.0	0.0	0.0	0.0	0.0	0.0	146.13793103448276	0.0	0.037414455	0.01196286	1.01830794	1.9075	0.41202	-0.39676	3309706.0	1776545010.058321	0.0	1.0	-1.0	-1.0	-1.0	-1.0	-1.0	-1.0	-1.0	-1.0	0.0	marker	peace	Peace	29	0418
-68959.845	-55532.07	-105096.105	-18711.045	0.0	0.0	0.0	0.0	0.0	0.0	0.0	0.0	0.0	0.0	0.0	0.0	0.0	0.0	146.13793103448276	0.0	0.037414455	0.01196286	1.01830794	1.9075	0.41202	-0.39676	3309707.0	1776545010.058325	0.0	1.0	-1.0	-1.0	-1.0	-1.0	-1.0	-1.0	-1.0	-1.0	0.0	marker	peace	Peace	29	0418
-68920.02	-55518.93	-105071.76	-18670.454999999998	0.0	0.0	0.0	0.0	0.0	0.0	0.0	0.0	0.0	0.0	0.0	0.0	0.0	0.0	146.13793103448276	0.0	0.037414455	0.01196286	1.01830794	1.9075	0.41202	-0.39676	3309708.0	1776545010.05833	0.0	1.0	-1.0	-1.0	-1.0	-1.0	-1.0	-1.0	-1.0	-1.0	0.0	marker	peace	Peace	29	0418
-68941.44	-55509.21	-105096.69	-18692.505	0.0	0.0	0.0	0.0	0.0	0.0	0.0	0.0	0.0	0.0	0.0	0.0	0.0	0.0	146.13793103448276	0.0	0.037414455	0.01196286	1.01830794	1.9075	0.41202	-0.39676	3309709.0	1776545010.058334	0.0	1.0	-1.0	-1.0	-1.0	-1.0	-1.0	-1.0	-1.0	-1.0	0.0	marker	peace	Peace	29	0418
-69024.105	-55511.729999999996	-105176.565	-18777.645	0.0	0.0	0.0	0.0	0.0	0.0	0.0	0.0	0.0	0.0	0.0	0.0	0.0	0.0	146.13793103448276	0.0	0.037170315	0.00756834	1.01354721	3.2809	0.6714399999999999	-1.2207999999999999	3309710.0	1776545010.058339	0.0	1.0	-1.0	-1.0	-1.0	-1.0	-1.0	-1.0	-1.0	-1.0	0.0	marker	peace	Peace	29	0418
-68989.455	-55507.905	-105147.855	-18761.219999999998	0.0	0.0	0.0	0.0	0.0	0.0	0.0	0.0	0.0	0.0	0.0	0.0	0.0	0.0	146.13793103448276	0.0	0.037170315	0.00756834	1.01354721	3.2809	0.6714399999999999	-1.2207999999999999	3309711.0	1776545010.058343	0.0	1.0	-1.0	-1.0	-1.0	-1.0	-1.0	-1.0	-1.0	-1.0	0.0	marker	peace	Peace	29	0418
-68900.895	-55510.875	-105052.59	-18685.305	0.0	0.0	0.0	0.0	0.0	0.0	0.0	0.0	0.0	0.0	0.0	0.0	0.0	0.0	146.13793103448276	0.0	0.037170315	0.00756834	1.01354721	3.2809	0.6714399999999999	-1.2207999999999999	3309712.0	1776545010.058348	0.0	1.0	-1.0	-1.0	-1.0	-1.0	-1.0	-1.0	-1.0	-1.0	0.0	marker	peace	Peace	29	0418
-68941.98	-55515.869999999995	-105084.62999999999	-18700.11	0.0	0.0	0.0	0.0	0.0	0.0	0.0	0.0	0.0	0.0	0.0	0.0	0.0	0.0	146.13793103448276	0.0	0.037170315	0.00756834	1.01354721	3.2809	0.6714399999999999	-1.2207999999999999	3309713.0	1776545010.058352	0.0	1.0	-1.0	-1.0	-1.0	-1.0	-1.0	-1.0	-1.0	-1.0	0.0	marker	peace	Peace	29	0418
-68939.505	-55516.14	-105091.245	-18702.36	0.0	0.0	0.0	0.0	0.0	0.0	0.0	0.0	0.0	0.0	0.0	0.0	0.0	0.0	146.13793103448276	0.0	0.037170315	0.00756834	1.01354721	3.2809	0.6714399999999999	-1.2207999999999999	3309714.0	1776545010.058357	0.0	1.0	-1.0	-1.0	-1.0	-1.0	-1.0	-1.0	-1.0	-1.0	0.0	marker	peace	Peace	29	0418
-68857.425	-55508.49	-105021.62999999999	-18662.535	0.0	0.0	0.0	0.0	0.0	0.0	0.0	0.0	0.0	0.0	0.0	0.0	0.0	0.0	146.13793103448276	0.0	0.037170315	0.00756834	1.01354721	3.2809	0.6714399999999999	-1.2207999999999999	3309715.0	1776545010.058361	0.0	1.0	-1.0	-1.0	-1.0	-1.0	-1.0	-1.0	-1.0	-1.0	0.0	marker	peace	Peace	29	0418
-68868.315	-55509.075	-105023.51999999999	-18659.43	0.0	0.0	0.0	0.0	0.0	0.0	0.0	0.0	0.0	0.0	0.0	0.0	0.0	0.0	146.13793103448276	0.0	0.037170315	0.00756834	1.01354721	3.2809	0.6714399999999999	-1.2207999999999999	3309716.0	1776545010.058366	0.0	1.0	-1.0	-1.0	-1.0	-1.0	-1.0	-1.0	-1.0	-1.0	0.0	marker	peace	Peace	29	0418
-68920.47	-55511.775	-105070.05	-18680.265	0.0	0.0	0.0	0.0	0.0	0.0	0.0	0.0	0.0	0.0	0.0	0.0	0.0	0.0	146.13793103448276	0.0	0.037170315	0.00756834	1.01354721	3.2809	0.6714399999999999	-1.2207999999999999	3309717.0	1776545010.05837	0.0	1.0	-1.0	-1.0	-1.0	-1.0	-1.0	-1.0	-1.0	-1.0	0.0	marker	peace	Peace	29	0418
-68947.38	-55501.829999999994	-105087.375	-18693.45	0.0	0.0	0.0	0.0	0.0	0.0	0.0	0.0	0.0	0.0	0.0	0.0	0.0	0.0	146.13793103448276	0.0	0.037170315	0.00756834	1.01354721	3.2809	0.6714399999999999	-1.2207999999999999	3309718.0	1776545010.058375	0.0	1.0	-1.0	-1.0	-1.0	-1.0	-1.0	-1.0	-1.0	-1.0	0.0	marker	peace	Peace	29	0418
-68914.755	-55492.29	-105050.205	-18667.17	0.0	0.0	0.0	0.0	0.0	0.0	0.0	0.0	0.0	0.0	0.0	0.0	0.0	0.0	146.13793103448276	0.0	0.037170315	0.00756834	1.01354721	3.2809	0.6714399999999999	-1.2207999999999999	3309719.0	1776545010.058379	0.0	1.0	-1.0	-1.0	-1.0	-1.0	-1.0	-1.0	-1.0	-1.0	0.0	marker	peace	Peace	29	0418
-68889.42	-55497.869999999995	-105045.61499999999	-18651.645	0.0	0.0	0.0	0.0	0.0	0.0	0.0	0.0	0.0	0.0	0.0	0.0	0.0	0.0	146.13793103448276	0.0	0.036376860000000004	0.00476073	1.01183823	3.3571999999999997	1.23606	-1.09872	3309720.0	1776545010.058384	0.0	1.0	-1.0	-1.0	-1.0	-1.0	-1.0	-1.0	-1.0	-1.0	0.0	marker	peace	Peace	29	0418
-68872.77	-55507.725	-105030.405	-18628.605	0.0	0.0	0.0	0.0	0.0	0.0	0.0	0.0	0.0	0.0	0.0	0.0	0.0	0.0	146.13793103448276	0.0	0.036376860000000004	0.00476073	1.01183823	3.3571999999999997	1.23606	-1.09872	3309721.0	1776545010.058388	0.0	1.0	-1.0	-1.0	-1.0	-1.0	-1.0	-1.0	-1.0	-1.0	0.0	marker	peace	Peace	29	0418
-68841.495	-55525.725	-105024.555	-18613.755	0.0	0.0	0.0	0.0	0.0	0.0	0.0	0.0	0.0	0.0	0.0	0.0	0.0	0.0	146.13793103448276	0.0	0.036376860000000004	0.00476073	1.01183823	3.3571999999999997	1.23606	-1.09872	3309722.0	1776545010.058393	0.0	1.0	-1.0	-1.0	-1.0	-1.0	-1.0	-1.0	-1.0	-1.0	0.0	marker	peace	Peace	29	0418
-68934.87	-55541.07	-105106.815	-18704.655	0.0	0.0	0.0	0.0	0.0	0.0	0.0	0.0	0.0	0.0	0.0	0.0	0.0	0.0	146.13793103448276	0.0	0.036376860000000004	0.00476073	1.01183823	3.3571999999999997	1.23606	-1.09872	3309723.0	1776545010.058397	0.0	1.0	-1.0	-1.0	-1.0	-1.0	-1.0	-1.0	-1.0	-1.0	0.0	marker	peace	Peace	29	0418
-68993.91	-55550.025	-105098.94	-18736.829999999998	0.0	0.0	0.0	0.0	0.0	0.0	0.0	0.0	0.0	0.0	0.0	0.0	0.0	0.0	146.13793103448276	0.0	0.036376860000000004	0.00476073	1.01183823	3.3571999999999997	1.23606	-1.09872	3309724.0	1776545010.058402	0.0	1.0	-1.0	-1.0	-1.0	-1.0	-1.0	-1.0	-1.0	-1.0	0.0	marker	peace	Peace	29	0418
-68953.31999999999	-55563.795	-105039.36	-18683.01	0.0	0.0	0.0	0.0	0.0	0.0	0.0	0.0	0.0	0.0	0.0	0.0	0.0	0.0	146.13793103448276	0.0	0.036376860000000004	0.00476073	1.01183823	3.3571999999999997	1.23606	-1.09872	3309725.0	1776545010.058406	0.0	1.0	-1.0	-1.0	-1.0	-1.0	-1.0	-1.0	-1.0	-1.0	0.0	marker	peace	Peace	29	0418
-68949.22499999999	-55562.895	-105031.98	-18684.18	0.0	0.0	0.0	0.0	0.0	0.0	0.0	0.0	0.0	0.0	0.0	0.0	0.0	0.0	146.13793103448276	0.0	0.036376860000000004	0.00476073	1.01183823	3.3571999999999997	1.23606	-1.09872	3309726.0	1776545010.058411	0.0	1.0	-1.0	-1.0	-1.0	-1.0	-1.0	-1.0	-1.0	-1.0	0.0	marker	peace	Peace	29	0418
-68907.19499999999	-55555.47	-105000.75	-18688.454999999998	0.0	0.0	0.0	0.0	0.0	0.0	0.0	0.0	0.0	0.0	0.0	0.0	0.0	0.0	146.13793103448276	0.0	0.036376860000000004	0.00476073	1.01183823	3.3571999999999997	1.23606	-1.09872	3309727.0	1776545010.058415	0.0	1.0	-1.0	-1.0	-1.0	-1.0	-1.0	-1.0	-1.0	-1.0	0.0	marker	peace	Peace	29	0418
-68905.08	-55555.38	-105056.73	-18710.684999999998	0.0	0.0	0.0	0.0	0.0	0.0	0.0	0.0	0.0	0.0	0.0	0.0	0.0	0.0	146.13793103448276	0.0	0.036376860000000004	0.00476073	1.01183823	3.3571999999999997	1.23606	-1.09872	3309728.0	1776545010.05842	0.0	1.0	-1.0	-1.0	-1.0	-1.0	-1.0	-1.0	-1.0	-1.0	0.0	marker	peace	Peace	29	0418
-68931.855	-55563.479999999996	-105141.33	-18707.219999999998	0.0	0.0	0.0	0.0	0.0	0.0	0.0	0.0	0.0	0.0	0.0	0.0	0.0	0.0	146.13793103448276	0.0	0.036376860000000004	0.00476073	1.01183823	3.3571999999999997	1.23606	-1.09872	3309729.0	1776545010.058424	0.0	1.0	-1.0	-1.0	-1.0	-1.0	-1.0	-1.0	-1.0	-1.0	0.0	marker	peace	Peace	29	0418
-68868.58499999999	-55563.57	-105050.15999999999	-18625.454999999998	0.0	0.0	0.0	0.0	0.0	0.0	0.0	0.0	0.0	0.0	0.0	0.0	0.0	0.0	146.13793103448276	0.0	0.03381339	0.005798325	1.01891829	4.97476	0.6103999999999999	-0.9919	3309730.0	1776545010.058428	0.0	1.0	-1.0	-1.0	-1.0	-1.0	-1.0	-1.0	-1.0	-1.0	0.0	marker	peace	Peace	29	0418
-68836.995	-55565.189999999995	-105013.305	-18605.475	0.0	0.0	0.0	0.0	0.0	0.0	0.0	0.0	0.0	0.0	0.0	0.0	0.0	0.0	146.13793103448276	0.0	0.03381339	0.005798325	1.01891829	4.97476	0.6103999999999999	-0.9919	3309731.0	1776545010.058432	0.0	1.0	-1.0	-1.0	-1.0	-1.0	-1.0	-1.0	-1.0	-1.0	0.0	marker	peace	Peace	29	0418
-68940.54	-55573.56	-105126.345	-18722.25	0.0	0.0	0.0	0.0	0.0	0.0	0.0	0.0	0.0	0.0	0.0	0.0	0.0	0.0	146.13793103448276	0.0	0.03381339	0.005798325	1.01891829	4.97476	0.6103999999999999	-0.9919	3309732.0	1776545010.059023	0.0	1.0	-1.0	-1.0	-1.0	-1.0	-1.0	-1.0	-1.0	-1.0	0.0	marker	peace	Peace	29	0418
-68984.505	-55569.15	-105154.69499999999	-18751.68	0.0	0.0	0.0	0.0	0.0	0.0	0.0	0.0	0.0	0.0	0.0	0.0	0.0	0.0	146.13793103448276	0.0	0.03381339	0.005798325	1.01891829	4.97476	0.6103999999999999	-0.9919	3309733.0	1776545010.059028	0.0	1.0	-1.0	-1.0	-1.0	-1.0	-1.0	-1.0	-1.0	-1.0	0.0	marker	peace	Peace	29	0418
-68943.42	-55572.345	-105091.73999999999	-18691.829999999998	0.0	0.0	0.0	0.0	0.0	0.0	0.0	0.0	0.0	0.0	0.0	0.0	0.0	0.0	146.13793103448276	0.0	0.03381339	0.005798325	1.01891829	4.97476	0.6103999999999999	-0.9919	3309734.0	1776545010.059035	0.0	1.0	-1.0	-1.0	-1.0	-1.0	-1.0	-1.0	-1.0	-1.0	0.0	marker	peace	Peace	29	0418
-68892.48	-55619.505	-105054.885	-18655.875	0.0	0.0	0.0	0.0	0.0	0.0	0.0	0.0	0.0	0.0	0.0	0.0	0.0	0.0	146.13793103448276	0.0	0.03381339	0.005798325	1.01891829	4.97476	0.6103999999999999	-0.9919	3309735.0	1776545010.059039	0.0	1.0	-1.0	-1.0	-1.0	-1.0	-1.0	-1.0	-1.0	-1.0	0.0	marker	peace	Peace	29	0418
-68824.26	-55635.21	-105000.56999999999	-18600.93	0.0	0.0	0.0	0.0	0.0	0.0	0.0	0.0	0.0	0.0	0.0	0.0	0.0	0.0	146.13793103448276	0.0	0.03381339	0.005798325	1.01891829	4.97476	0.6103999999999999	-0.9919	3309736.0	1776545010.060541	0.0	1.0	-1.0	-1.0	-1.0	-1.0	-1.0	-1.0	-1.0	-1.0	0.0	marker	peace	Peace	29	0418
-68884.73999999999	-55650.509999999995	-105063.3	-18668.79	0.0	0.0	0.0	0.0	0.0	0.0	0.0	0.0	0.0	0.0	0.0	0.0	0.0	0.0	146.13793103448276	0.0	0.03381339	0.005798325	1.01891829	4.97476	0.6103999999999999	-0.9919	3309737.0	1776545010.060551	0.0	1.0	-1.0	-1.0	-1.0	-1.0	-1.0	-1.0	-1.0	-1.0	0.0	marker	peace	Peace	29	0418
-68887.98	-55670.4	-105070.76999999999	-18687.96	0.0	0.0	0.0	0.0	0.0	0.0	0.0	0.0	0.0	0.0	0.0	0.0	0.0	0.0	146.13793103448276	0.0	0.03381339	0.005798325	1.01891829	4.97476	0.6103999999999999	-0.9919	3309738.0	1776545010.060559	0.0	1.0	-1.0	-1.0	-1.0	-1.0	-1.0	-1.0	-1.0	-1.0	0.0	marker	peace	Peace	29	0418
-68966.595	-55689.255	-105099.25499999999	-18716.309999999998	0.0	0.0	0.0	0.0	0.0	0.0	0.0	0.0	0.0	0.0	0.0	0.0	0.0	0.0	146.13793103448276	0.0	0.03381339	0.005798325	1.01891829	4.97476	0.6103999999999999	-0.9919	3309739.0	1776545010.060563	0.0	1.0	-1.0	-1.0	-1.0	-1.0	-1.0	-1.0	-1.0	-1.0	0.0	marker	peace	Peace	29	0418
-68918.13	-55684.034999999996	-105058.53	-18674.64	0.0	0.0	0.0	0.0	0.0	0.0	0.0	0.0	0.0	0.0	0.0	0.0	0.0	0.0	146.13793103448276	0.0	0.035217195	0.015319785	1.020322095	3.8455199999999996	0.7019599999999999	-0.15259999999999999	3309740.0	1776545010.060568	0.0	1.0	-1.0	-1.0	-1.0	-1.0	-1.0	-1.0	-1.0	-1.0	0.0	marker	peace	Peace	29	0418
