ch_0	ch_1	ch_2	ch_3	ch_4	ch_5	ch_6	ch_7	ch_8	ch_9	ch_10	ch_11	ch_12	ch_13	ch_14	ch_15	ch_16	ch_17	ch_18	ch_19	ch_20	ch_21	ch_22	ch_23	ch_24	ch_25	ch_26	timestamp	marker	ch_29	ch_30	ch_31	ch_32	ch_33	ch_34	ch_35	ch_36	ch_37	ch_38	MarkerColumn	GestureLabel	CueLabel	SampleNumber	CollectionDate
-68473.98	-54967.77	-104685.705	-18522.54	0.0	0.0	0.0	0.0	0.0	0.0	0.0	0.0	0.0	0.0	0.0	0.0	0.0	0.0	145.86206896551727	0.0	0.060119475	-0.07739238	0.997739145	4.15072	3.83026	-1.51074	3288657.0	1776544967.744227	5.0	1.0	-1.0	-1.0	-1.0	-1.0	-1.0	-1.0	-1.0	-1.0	0.0	marker	peace	Peace	25	0418
-68498.55	-54969.39	-104707.125	-18546.524999999998	0.0	0.0	0.0	0.0	0.0	0.0	0.0	0.0	0.0	0.0	0.0	0.0	0.0	0.0	145.86206896551727	0.0	0.060119475	-0.07739238	0.997739145	4.15072	3.83026	-1.51074	3288658.0	1776544967.744232	0.0	1.0	-1.0	-1.0	-1.0	-1.0	-1.0	-1.0	-1.0	-1.0	0.0	marker	peace	Peace	25	0418
-68459.355	-54973.17	-104687.01	-18525.78	0.0	0.0	0.0	0.0	0.0	0.0	0.0	0.0	0.0	0.0	0.0	0.0	0.0	0.0	145.86206896551727	0.0	0.060119475	-0.07739238	0.997739145	4.15072	3.83026	-1.51074	3288659.0	1776544967.746066	0.0	1.0	-1.0	-1.0	-1.0	-1.0	-1.0	-1.0	-1.0	-1.0	0.0	marker	peace	Peace	25	0418
-68474.25	-54965.924999999996	-104688.9	-18533.114999999998	0.0	0.0	0.0	0.0	0.0	0.0	0.0	0.0	0.0	0.0	0.0	0.0	0.0	0.0	145.86206896551727	0.0	0.060119475	-0.07739238	0.997739145	4.15072	3.83026	-1.51074	3288660.0	1776544967.746069	0.0	1.0	-1.0	-1.0	-1.0	-1.0	-1.0	-1.0	-1.0	-1.0	0.0	marker	peace	Peace	25	0418
-68520.555	-54946.755	-104734.53	-18568.53	0.0	0.0	0.0	0.0	0.0	0.0	0.0	0.0	0.0	0.0	0.0	0.0	0.0	0.0	145.86206896551727	0.0	0.060119475	-0.07739238	0.997739145	4.15072	3.83026	-1.51074	3288661.0	1776544967.750089	0.0	1.0	-1.0	-1.0	-1.0	-1.0	-1.0	-1.0	-1.0	-1.0	0.0	marker	peace	Peace	25	0418
-68487.435	-54928.439999999995	-104709.465	-18552.915	0.0	0.0	0.0	0.0	0.0	0.0	0.0	0.0	0.0	0.0	0.0	0.0	0.0	0.0	145.86206896551727	0.0	0.060119475	-0.07739238	0.997739145	4.15072	3.83026	-1.51074	3288662.0	1776544967.750097	0.0	1.0	-1.0	-1.0	-1.0	-1.0	-1.0	-1.0	-1.0	-1.0	0.0	marker	peace	Peace	25	0418
-68474.61	-54920.07	-104664.06	-18502.469999999998	0.0	0.0	0.0	0.0	0.0	0.0	0.0	0.0	0.0	0.0	0.0	0.0	0.0	0.0	145.86206896551727	0.0	0.060119475	-0.07739238	0.997739145	4.15072	3.83026	-1.51074	3288663.0	1776544967.754084	0.0	1.0	-1.0	-1.0	-1.0	-1.0	-1.0	-1.0	-1.0	-1.0	0.0	marker	peace	Peace	25	0418
-68379.20999999999	-54913.68	-104594.48999999999	-18437.625	0.0	0.0	0.0	0.0	0.0	0.0	0.0	0.0	0.0	0.0	0.0	0.0	0.0	0.0	145.86206896551727	0.0	0.060119475	-0.07739238	0.997739145	4.15072	3.83026	-1.51074	3288664.0	1776544967.75409	0.0	1.0	-1.0	-1.0	-1.0	-1.0	-1.0	-1.0	-1.0	-1.0	0.0	marker	peace	Peace	25	0418
-68455.08	-54921.015	-104677.33499999999	-18508.68	0.0	0.0	0.0	0.0	0.0	0.0	0.0	0.0	0.0	0.0	0.0	0.0	0.0	0.0	145.86206896551727	0.0	0.060119475	-0.07739238	0.997739145	4.15072	3.83026	-1.51074	3288665.0	1776544967.75819	0.0	1.0	-1.0	-1.0	-1.0	-1.0	-1.0	-1.0	-1.0	-1.0	0.0	marker	peace	Peace	25	0418
-68526.18	-54923.715	-104737.995	-18565.2	0.0	0.0	0.0	0.0	0.0	0.0	0.0	0.0	0.0	0.0	0.0	0.0	0.0	0.0	145.86206896551727	0.0	0.060119475	-0.07739238	0.997739145	4.15072	3.83026	-1.51074	3288666.0	1776544967.758209	0.0	1.0	-1.0	-1.0	-1.0	-1.0	-1.0	-1.0	-1.0	-1.0	0.0	marker	peace	Peace	25	0418
-68479.92	-54915.299999999996	-104702.175	-18537.795	0.0	0.0	0.0	0.0	0.0	0.0	0.0	0.0	0.0	0.0	0.0	0.0	0.0	0.0	145.86206896551727	0.0	0.06915265500000001	-0.07836894	0.99474843	7.66052	5.76828	-2.65524	3288667.0	1776544967.76362	0.0	1.0	-1.0	-1.0	-1.0	-1.0	-1.0	-1.0	-1.0	-1.0	0.0	marker	peace	Peace	25	0418
-68439.59999999999	-54910.755	-104669.28	-18503.774999999998	0.0	0.0	0.0	0.0	0.0	0.0	0.0	0.0	0.0	0.0	0.0	0.0	0.0	0.0	145.86206896551727	0.0	0.06915265500000001	-0.07836894	0.99474843	7.66052	5.76828	-2.65524	3288668.0	1776544967.763635	0.0	1.0	-1.0	-1.0	-1.0	-1.0	-1.0	-1.0	-1.0	-1.0	0.0	marker	peace	Peace	25	0418
-68458.36499999999	-54912.6	-104666.67	-18490.86	0.0	0.0	0.0	0.0	0.0	0.0	0.0	0.0	0.0	0.0	0.0	0.0	0.0	0.0	145.86206896551727	0.0	0.06915265500000001	-0.07836894	0.99474843	7.66052	5.76828	-2.65524	3288669.0	1776544967.766098	0.0	1.0	-1.0	-1.0	-1.0	-1.0	-1.0	-1.0	-1.0	-1.0	0.0	marker	peace	Peace	25	0418
-68423.355	-54923.22	-104647.995	-18488.61	0.0	0.0	0.0	0.0	0.0	0.0	0.0	0.0	0.0	0.0	0.0	0.0	0.0	0.0	145.86206896551727	0.0	0.06915265500000001	-0.07836894	0.99474843	7.66052	5.76828	-2.65524	3288670.0	1776544967.766101	0.0	1.0	-1.0	-1.0	-1.0	-1.0	-1.0	-1.0	-1.0	-1.0	0.0	marker	peace	Peace	25	0418
-68475.87	-54930.6	-104685.75	-18524.835	0.0	0.0	0.0	0.0	0.0	0.0	0.0	0.0	0.0	0.0	0.0	0.0	0.0	0.0	145.86206896551727	0.0	0.06915265500000001	-0.07836894	0.99474843	7.66052	5.76828	-2.65524	3288671.0	1776544967.770086	0.0	1.0	-1.0	-1.0	-1.0	-1.0	-1.0	-1.0	-1.0	-1.0	0.0	marker	peace	Peace	25	0418
-68484.69	-54933.84	-104698.70999999999	-18544.995	0.0	0.0	0.0	0.0	0.0	0.0	0.0	0.0	0.0	0.0	0.0	0.0	0.0	0.0	145.86206896551727	0.0	0.06915265500000001	-0.07836894	0.99474843	7.66052	5.76828	-2.65524	3288672.0	1776544967.770089	0.0	1.0	-1.0	-1.0	-1.0	-1.0	-1.0	-1.0	-1.0	-1.0	0.0	marker	peace	Peace	25	0418
-68494.455	-54944.729999999996	-104716.98	-18562.41	0.0	0.0	0.0	0.0	0.0	0.0	0.0	0.0	0.0	0.0	0.0	0.0	0.0	0.0	145.86206896551727	0.0	0.06915265500000001	-0.07836894	0.99474843	7.66052	5.76828	-2.65524	3288673.0	1776544967.774141	0.0	1.0	-1.0	-1.0	-1.0	-1.0	-1.0	-1.0	-1.0	-1.0	0.0	marker	peace	Peace	25	0418
-68487.885	-54953.009999999995	-104703.39	-18551.25	0.0	0.0	0.0	0.0	0.0	0.0	0.0	0.0	0.0	0.0	0.0	0.0	0.0	0.0	145.86206896551727	0.0	0.06915265500000001	-0.07836894	0.99474843	7.66052	5.76828	-2.65524	3288674.0	1776544967.774144	0.0	1.0	-1.0	-1.0	-1.0	-1.0	-1.0	-1.0	-1.0	-1.0	0.0	marker	peace	Peace	25	0418
-68469.525	-54948.465	-104675.31	-18537.39	0.0	0.0	0.0	0.0	0.0	0.0	0.0	0.0	0.0	0.0	0.0	0.0	0.0	0.0	145.86206896551727	0.0	0.06915265500000001	-0.07836894	0.99474843	7.66052	5.76828	-2.65524	3288675.0	1776544967.778222	0.0	1.0	-1.0	-1.0	-1.0	-1.0	-1.0	-1.0	-1.0	-1.0	0.0	marker	peace	Peace	25	0418
-68444.235	-54936.765	-104649.56999999999	-18504.719999999998	0.0	0.0	0.0	0.0	0.0	0.0	0.0	0.0	0.0	0.0	0.0	0.0	0.0	0.0	145.86206896551727	0.0	0.06915265500000001	-0.07836894	0.99474843	7.66052	5.76828	-2.65524	3288676.0	1776544967.778226	0.0	1.0	-1.0	-1.0	-1.0	-1.0	-1.0	-1.0	-1.0	-1.0	0.0	marker	peace	Peace	25	0418
-68439.19499999999	-54920.43	-104674.36499999999	-18491.489999999998	0.0	0.0	0.0	0.0	0.0	0.0	0.0	0.0	0.0	0.0	0.0	0.0	0.0	0.0	145.86206896551727	0.0	0.057067725	-0.073303035	1.00512438	13.39828	6.66862	-4.822159999999999	3288677.0	1776544967.782166	0.0	1.0	-1.0	-1.0	-1.0	-1.0	-1.0	-1.0	-1.0	-1.0	0.0	marker	peace	Peace	25	0418
-68490.765	-54913.5	-104736.69	-18552.059999999998	0.0	0.0	0.0	0.0	0.0	0.0	0.0	0.0	0.0	0.0	0.0	0.0	0.0	0.0	145.86206896551727	0.0	0.057067725	-0.073303035	1.00512438	13.39828	6.66862	-4.822159999999999	3288678.0	1776544967.782169	0.0	1.0	-1.0	-1.0	-1.0	-1.0	-1.0	-1.0	-1.0	-1.0	0.0	marker	peace	Peace	25	0418
-68483.34	-54914.895	-104712.25499999999	-18537.84	0.0	0.0	0.0	0.0	0.0	0.0	0.0	0.0	0.0	0.0	0.0	0.0	0.0	0.0	145.86206896551727	0.0	0.057067725	-0.073303035	1.00512438	13.39828	6.66862	-4.822159999999999	3288679.0	1776544967.786205	0.0	1.0	-1.0	-1.0	-1.0	-1.0	-1.0	-1.0	-1.0	-1.0	0.0	marker	peace	Peace	25	0418
-68450.58	-54914.265	-104673.64499999999	-18509.94	0.0	0.0	0.0	0.0	0.0	0.0	0.0	0.0	0.0	0.0	0.0	0.0	0.0	0.0	145.86206896551727	0.0	0.057067725	-0.073303035	1.00512438	13.39828	6.66862	-4.822159999999999	3288680.0	1776544967.786208	0.0	1.0	-1.0	-1.0	-1.0	-1.0	-1.0	-1.0	-1.0	-1.0	0.0	marker	peace	Peace	25	0418
-68395.14	-54912.509999999995	-104623.2	-18467.415	0.0	0.0	0.0	0.0	0.0	0.0	0.0	0.0	0.0	0.0	0.0	0.0	0.0	0.0	145.86206896551727	0.0	0.057067725	-0.073303035	1.00512438	13.39828	6.66862	-4.822159999999999	3288681.0	1776544967.791384	0.0	1.0	-1.0	-1.0	-1.0	-1.0	-1.0	-1.0	-1.0	-1.0	0.0	marker	peace	Peace	25	0418
-68450.58	-54928.979999999996	-104666.715	-18512.28	0.0	0.0	0.0	0.0	0.0	0.0	0.0	0.0	0.0	0.0	0.0	0.0	0.0	0.0	145.86206896551727	0.0	0.057067725	-0.073303035	1.00512438	13.39828	6.66862	-4.822159999999999	3288682.0	1776544967.791388	0.0	1.0	-1.0	-1.0	-1.0	-1.0	-1.0	-1.0	-1.0	-1.0	0.0	marker	peace	Peace	25	0418
-68475.375	-54933.84	-104686.92	-18528.84	0.0	0.0	0.0	0.0	0.0	0.0	0.0	0.0	0.0	0.0	0.0	0.0	0.0	0.0	145.86206896551727	0.0	0.057067725	-0.073303035	1.00512438	13.39828	6.66862	-4.822159999999999	3288683.0	1776544967.797657	0.0	1.0	-1.0	-1.0	-1.0	-1.0	-1.0	-1.0	-1.0	-1.0	0.0	marker	peace	Peace	25	0418
-68476.545	-54931.229999999996	-104691.735	-18527.895	0.0	0.0	0.0	0.0	0.0	0.0	0.0	0.0	0.0	0.0	0.0	0.0	0.0	0.0	145.86206896551727	0.0	0.057067725	-0.073303035	1.00512438	13.39828	6.66862	-4.822159999999999	3288684.0	1776544967.79766	0.0	1.0	-1.0	-1.0	-1.0	-1.0	-1.0	-1.0	-1.0	-1.0	0.0	marker	peace	Peace	25	0418
-68483.25	-54939.375	-104700.375	-18530.28	0.0	0.0	0.0	0.0	0.0	0.0	0.0	0.0	0.0	0.0	0.0	0.0	0.0	0.0	145.86206896551727	0.0	0.057067725	-0.073303035	1.00512438	13.39828	6.66862	-4.822159999999999	3288685.0	1776544967.797902	0.0	1.0	-1.0	-1.0	-1.0	-1.0	-1.0	-1.0	-1.0	-1.0	0.0	marker	peace	Peace	25	0418
-68480.955	-54943.92	-104691.64499999999	-18517.41	0.0	0.0	0.0	0.0	0.0	0.0	0.0	0.0	0.0	0.0	0.0	0.0	0.0	0.0	145.86206896551727	0.0	0.057067725	-0.073303035	1.00512438	13.39828	6.66862	-4.822159999999999	3288686.0	1776544967.797905	0.0	1.0	-1.0	-1.0	-1.0	-1.0	-1.0	-1.0	-1.0	-1.0	0.0	marker	peace	Peace	25	0418
-68463.135	-54946.17	-104675.53499999999	-18503.415	0.0	0.0	0.0	0.0	0.0	0.0	0.0	0.0	0.0	0.0	0.0	0.0	0.0	0.0	145.86206896551727	0.0	0.040099995	-0.059264985	1.014828945	13.779779999999999	5.1884	-5.00528	3288687.0	1776544967.802201	0.0	1.0	-1.0	-1.0	-1.0	-1.0	-1.0	-1.0	-1.0	-1.0	0.0	marker	peace	Peace	25	0418
-68443.65	-54948.689999999995	-104656.095	-18486.27	0.0	0.0	0.0	0.0	0.0	0.0	0.0	0.0	0.0	0.0	0.0	0.0	0.0	0.0	145.86206896551727	0.0	0.040099995	-0.059264985	1.014828945	13.779779999999999	5.1884	-5.00528	3288688.0	1776544967.802204	0.0	1.0	-1.0	-1.0	-1.0	-1.0	-1.0	-1.0	-1.0	-1.0	0.0	marker	peace	Peace	25	0418
-68461.965	-54959.49	-104685.12	-18533.88	0.0	0.0	0.0	0.0	0.0	0.0	0.0	0.0	0.0	0.0	0.0	0.0	0.0	0.0	145.86206896551727	0.0	0.040099995	-0.059264985	1.014828945	13.779779999999999	5.1884	-5.00528	3288689.0	1776544967.806282	0.0	1.0	-1.0	-1.0	-1.0	-1.0	-1.0	-1.0	-1.0	-1.0	0.0	marker	peace	Peace	25	0418
-68477.08499999999	-54956.79	-104693.04	-18545.13	0.0	0.0	0.0	0.0	0.0	0.0	0.0	0.0	0.0	0.0	0.0	0.0	0.0	0.0	145.86206896551727	0.0	0.040099995	-0.059264985	1.014828945	13.779779999999999	5.1884	-5.00528	3288690.0	1776544967.806285	0.0	1.0	-1.0	-1.0	-1.0	-1.0	-1.0	-1.0	-1.0	-1.0	0.0	marker	peace	Peace	25	0418
-68475.33	-54937.35	-104677.245	-18534.285	0.0	0.0	0.0	0.0	0.0	0.0	0.0	0.0	0.0	0.0	0.0	0.0	0.0	0.0	145.86206896551727	0.0	0.040099995	-0.059264985	1.014828945	13.779779999999999	5.1884	-5.00528	3288691.0	1776544967.810374	0.0	1.0	-1.0	-1.0	-1.0	-1.0	-1.0	-1.0	-1.0	-1.0	0.0	marker	peace	Peace	25	0418
-68475.015	-54921.15	-104683.00499999999	-18532.89	0.0	0.0	0.0	0.0	0.0	0.0	0.0	0.0	0.0	0.0	0.0	0.0	0.0	0.0	145.86206896551727	0.0	0.040099995	-0.059264985	1.014828945	13.779779999999999	5.1884	-5.00528	3288692.0	1776544967.810377	0.0	1.0	-1.0	-1.0	-1.0	-1.0	-1.0	-1.0	-1.0	-1.0	0.0	marker	peace	Peace	25	0418
-68476.455	-54910.619999999995	-104697.54	-18543.015	0.0	0.0	0.0	0.0	0.0	0.0	0.0	0.0	0.0	0.0	0.0	0.0	0.0	0.0	145.86206896551727	0.0	0.040099995	-0.059264985	1.014828945	13.779779999999999	5.1884	-5.00528	3288693.0	1776544967.816366	0.0	1.0	-1.0	-1.0	-1.0	-1.0	-1.0	-1.0	-1.0	-1.0	0.0	marker	peace	Peace	25	0418
-68463.45	-54911.204999999994	-104698.17	-18528.66	0.0	0.0	0.0	0.0	0.0	0.0	0.0	0.0	0.0	0.0	0.0	0.0	0.0	0.0	145.86206896551727	0.0	0.040099995	-0.059264985	1.014828945	13.779779999999999	5.1884	-5.00528	3288694.0	1776544967.816382	0.0	1.0	-1.0	-1.0	-1.0	-1.0	-1.0	-1.0	-1.0	-1.0	0.0	marker	peace	Peace	25	0418
-68426.28	-54907.65	-104665.31999999999	-18496.71	0.0	0.0	0.0	0.0	0.0	0.0	0.0	0.0	0.0	0.0	0.0	0.0	0.0	0.0	145.86206896551727	0.0	0.040099995	-0.059264985	1.014828945	13.779779999999999	5.1884	-5.00528	3288695.0	1776544967.819372	0.0	1.0	-1.0	-1.0	-1.0	-1.0	-1.0	-1.0	-1.0	-1.0	0.0	marker	peace	Peace	25	0418
-68463.315	-54898.515	-104687.19	-18506.295	0.0	0.0	0.0	0.0	0.0	0.0	0.0	0.0	0.0	0.0	0.0	0.0	0.0	0.0	145.86206896551727	0.0	0.040099995	-0.059264985	1.014828945	13.779779999999999	5.1884	-5.00528	3288696.0	1776544967.819376	0.0	1.0	-1.0	-1.0	-1.0	-1.0	-1.0	-1.0	-1.0	-1.0	0.0	marker	peace	Peace	25	0418
-68501.565	-54905.534999999996	-104695.2	-18519.795	0.0	0.0	0.0	0.0	0.0	0.0	0.0	0.0	0.0	0.0	0.0	0.0	0.0	0.0	145.86206896551727	0.0	0.033996495	-0.044982795	1.029965625	7.065379999999999	2.8078399999999997	-3.17408	3288697.0	1776544967.822236	0.0	1.0	-1.0	-1.0	-1.0	-1.0	-1.0	-1.0	-1.0	-1.0	0.0	marker	peace	Peace	25	0418
-68486.67	-54916.695	-104691.64499999999	-18529.695	0.0	0.0	0.0	0.0	0.0	0.0	0.0	0.0	0.0	0.0	0.0	0.0	0.0	0.0	145.86206896551727	0.0	0.033996495	-0.044982795	1.029965625	7.065379999999999	2.8078399999999997	-3.17408	3288698.0	1776544967.822239	0.0	1.0	-1.0	-1.0	-1.0	-1.0	-1.0	-1.0	-1.0	-1.0	0.0	marker	peace	Peace	25	0418
-68470.02	-54926.865	-104688.26999999999	-18528.255	0.0	0.0	0.0	0.0	0.0	0.0	0.0	0.0	0.0	0.0	0.0	0.0	0.0	0.0	145.86206896551727	0.0	0.033996495	-0.044982795	1.029965625	7.065379999999999	2.8078399999999997	-3.17408	3288699.0	1776544967.82764	0.0	1.0	-1.0	-1.0	-1.0	-1.0	-1.0	-1.0	-1.0	-1.0	0.0	marker	peace	Peace	25	0418
-68462.955	-54927.405	-104683.76999999999	-18532.665	0.0	0.0	0.0	0.0	0.0	0.0	0.0	0.0	0.0	0.0	0.0	0.0	0.0	0.0	145.86206896551727	0.0	0.033996495	-0.044982795	1.029965625	7.065379999999999	2.8078399999999997	-3.17408	3288700.0	1776544967.827656	0.0	1.0	-1.0	-1.0	-1.0	-1.0	-1.0	-1.0	-1.0	-1.0	0.0	marker	peace	Peace	25	0418
-68467.815	-54946.979999999996	-104690.25	-18534.015	0.0	0.0	0.0	0.0	0.0	0.0	0.0	0.0	0.0	0.0	0.0	0.0	0.0	0.0	145.86206896551727	0.0	0.033996495	-0.044982795	1.029965625	7.065379999999999	2.8078399999999997	-3.17408	3288701.0	1776544967.830331	0.0	1.0	-1.0	-1.0	-1.0	-1.0	-1.0	-1.0	-1.0	-1.0	0.0	marker	peace	Peace	25	0418
-68456.925	-54954.9	-104690.655	-18530.055	0.0	0.0	0.0	0.0	0.0	0.0	0.0	0.0	0.0	0.0	0.0	0.0	0.0	0.0	145.86206896551727	0.0	0.033996495	-0.044982795	1.029965625	7.065379999999999	2.8078399999999997	-3.17408	3288702.0	1776544967.830335	0.0	1.0	-1.0	-1.0	-1.0	-1.0	-1.0	-1.0	-1.0	-1.0	0.0	marker	peace	Peace	25	0418
-68361.795	-54944.369999999995	-104606.01	-18446.895	0.0	0.0	0.0	0.0	0.0	0.0	0.0	0.0	0.0	0.0	0.0	0.0	0.0	0.0	145.86206896551727	0.0	0.033996495	-0.044982795	1.029965625	7.065379999999999	2.8078399999999997	-3.17408	3288703.0	1776544967.834325	0.0	1.0	-1.0	-1.0	-1.0	-1.0	-1.0	-1.0	-1.0	-1.0	0.0	marker	peace	Peace	25	0418
-68332.36499999999	-54940.454999999994	-104564.34	-18400.815	0.0	0.0	0.0	0.0	0.0	0.0	0.0	0.0	0.0	0.0	0.0	0.0	0.0	0.0	145.86206896551727	0.0	0.033996495	-0.044982795	1.029965625	7.065379999999999	2.8078399999999997	-3.17408	3288704.0	1776544967.834328	0.0	1.0	-1.0	-1.0	-1.0	-1.0	-1.0	-1.0	-1.0	-1.0	0.0	marker	peace	Peace	25	0418
-68568.705	-54958.68	-104745.42	-18575.73	0.0	0.0	0.0	0.0	0.0	0.0	0.0	0.0	0.0	0.0	0.0	0.0	0.0	0.0	145.86206896551727	0.0	0.033996495	-0.044982795	1.029965625	7.065379999999999	2.8078399999999997	-3.17408	3288705.0	1776544967.83835	0.0	1.0	-1.0	-1.0	-1.0	-1.0	-1.0	-1.0	-1.0	-1.0	0.0	marker	peace	Peace	25	0418
-68554.17	-54960.255	-104729.08499999999	-18565.2	0.0	0.0	0.0	0.0	0.0	0.0	0.0	0.0	0.0	0.0	0.0	0.0	0.0	0.0	145.86206896551727	0.0	0.033996495	-0.044982795	1.029965625	7.065379999999999	2.8078399999999997	-3.17408	3288706.0	1776544967.838354	0.0	1.0	-1.0	-1.0	-1.0	-1.0	-1.0	-1.0	-1.0	-1.0	0.0	marker	peace	Peace	25	0418
-68496.61499999999	-54959.354999999996	-104687.055	-18539.73	0.0	0.0	0.0	0.0	0.0	0.0	0.0	0.0	0.0	0.0	0.0	0.0	0.0	0.0	145.86206896551727	0.0	0.033691320000000004	-0.047973510000000004	1.041562275	7.340059999999999	0.4578	-3.67766	3288707.0	1776544967.842449	0.0	1.0	-1.0	-1.0	-1.0	-1.0	-1.0	-1.0	-1.0	-1.0	0.0	marker	peace	Peace	25	0418
-68450.08499999999	-54949.005	-104655.59999999999	-18506.34	0.0	0.0	0.0	0.0	0.0	0.0	0.0	0.0	0.0	0.0	0.0	0.0	0.0	0.0	145.86206896551727	0.0	0.033691320000000004	-0.047973510000000004	1.041562275	7.340059999999999	0.4578	-3.67766	3288708.0	1776544967.842454	0.0	1.0	-1.0	-1.0	-1.0	-1.0	-1.0	-1.0	-1.0	-1.0	0.0	marker	peace	Peace	25	0418
-68430.645	-54944.729999999996	-104664.51	-18502.875	0.0	0.0	0.0	0.0	0.0	0.0	0.0	0.0	0.0	0.0	0.0	0.0	0.0	0.0	145.86206896551727	0.0	0.033691320000000004	-0.047973510000000004	1.041562275	7.340059999999999	0.4578	-3.67766	3288709.0	1776544967.846346	0.0	1.0	-1.0	-1.0	-1.0	-1.0	-1.0	-1.0	-1.0	-1.0	0.0	marker	peace	Peace	25	0418
-68485.545	-54944.235	-104722.29	-18526.68	0.0	0.0	0.0	0.0	0.0	0.0	0.0	0.0	0.0	0.0	0.0	0.0	0.0	0.0	145.86206896551727	0.0	0.033691320000000004	-0.047973510000000004	1.041562275	7.340059999999999	0.4578	-3.67766	3288710.0	1776544967.84635	0.0	1.0	-1.0	-1.0	-1.0	-1.0	-1.0	-1.0	-1.0	-1.0	0.0	marker	peace	Peace	25	0418
-68498.19	-54944.325	-104705.235	-18521.684999999998	0.0	0.0	0.0	0.0	0.0	0.0	0.0	0.0	0.0	0.0	0.0	0.0	0.0	0.0	145.86206896551727	0.0	0.033691320000000004	-0.047973510000000004	1.041562275	7.340059999999999	0.4578	-3.67766	3288711.0	1776544967.850509	0.0	1.0	-1.0	-1.0	-1.0	-1.0	-1.0	-1.0	-1.0	-1.0	0.0	marker	peace	Peace	25	0418
-68473.44	-54950.04	-104672.34	-18528.93	0.0	0.0	0.0	0.0	0.0	0.0	0.0	0.0	0.0	0.0	0.0	0.0	0.0	0.0	145.86206896551727	0.0	0.033691320000000004	-0.047973510000000004	1.041562275	7.340059999999999	0.4578	-3.67766	3288712.0	1776544967.850521	0.0	1.0	-1.0	-1.0	-1.0	-1.0	-1.0	-1.0	-1.0	-1.0	0.0	marker	peace	Peace	25	0418
-68456.34	-54952.29	-104676.39	-18522.989999999998	0.0	0.0	0.0	0.0	0.0	0.0	0.0	0.0	0.0	0.0	0.0	0.0	0.0	0.0	145.86206896551727	0.0	0.033691320000000004	-0.047973510000000004	1.041562275	7.340059999999999	0.4578	-3.67766	3288713.0	1776544967.864077	0.0	1.0	-1.0	-1.0	-1.0	-1.0	-1.0	-1.0	-1.0	-1.0	0.0	marker	peace	Peace	25	0418
-68439.15	-54954.27	-104655.23999999999	-18503.055	0.0	0.0	0.0	0.0	0.0	0.0	0.0	0.0	0.0	0.0	0.0	0.0	0.0	0.0	145.86206896551727	0.0	0.033691320000000004	-0.047973510000000004	1.041562275	7.340059999999999	0.4578	-3.67766	3288714.0	1776544967.864085	0.0	1.0	-1.0	-1.0	-1.0	-1.0	-1.0	-1.0	-1.0	-1.0	0.0	marker	peace	Peace	25	0418
-68462.37	-54969.39	-104663.295	-18508.364999999998	0.0	0.0	0.0	0.0	0.0	0.0	0.0	0.0	0.0	0.0	0.0	0.0	0.0	0.0	145.86206896551727	0.0	0.033691320000000004	-0.047973510000000004	1.041562275	7.340059999999999	0.4578	-3.67766	3288715.0	1776544967.864102	0.0	1.0	-1.0	-1.0	-1.0	-1.0	-1.0	-1.0	-1.0	-1.0	0.0	marker	peace	Peace	25	0418
-68485.905	-54977.715	-104689.17	-18531.54	0.0	0.0	0.0	0.0	0.0	0.0	0.0	0.0	0.0	0.0	0.0	0.0	0.0	0.0	145.86206896551727	0.0	0.033691320000000004	-0.047973510000000004	1.041562275	7.340059999999999	0.4578	-3.67766	3288716.0	1776544967.864105	0.0	1.0	-1.0	-1.0	-1.0	-1.0	-1.0	-1.0	-1.0	-1.0	0.0	marker	peace	Peace	25	0418
-68470.065	-54978.615	-104675.48999999999	-18522.18	0.0	0.0	0.0	0.0	0.0	0.0	0.0	0.0	0.0	0.0	0.0	0.0	0.0	0.0	145.86206896551727	0.0	0.031066815	-0.053161485	1.04296608	10.13264	-0.73248	-2.4110799999999997	3288717.0	1776544967.86411	0.0	1.0	-1.0	-1.0	-1.0	-1.0	-1.0	-1.0	-1.0	-1.0	0.0	marker	peace	Peace	25	0418
-68478.39	-54979.604999999996	-104664.87	-18518.67	0.0	0.0	0.0	0.0	0.0	0.0	0.0	0.0	0.0	0.0	0.0	0.0	0.0	0.0	145.86206896551727	0.0	0.031066815	-0.053161485	1.04296608	10.13264	-0.73248	-2.4110799999999997	3288718.0	1776544967.864113	0.0	1.0	-1.0	-1.0	-1.0	-1.0	-1.0	-1.0	-1.0	-1.0	0.0	marker	peace	Peace	25	0418
-68477.04	-54972.945	-104659.56	-18533.114999999998	0.0	0.0	0.0	0.0	0.0	0.0	0.0	0.0	0.0	0.0	0.0	0.0	0.0	0.0	145.86206896551727	0.0	0.031066815	-0.053161485	1.04296608	10.13264	-0.73248	-2.4110799999999997	3288719.0	1776544967.866563	0.0	1.0	-1.0	-1.0	-1.0	-1.0	-1.0	-1.0	-1.0	-1.0	0.0	marker	peace	Peace	25	0418
-68470.605	-54965.52	-104675.985	-18535.364999999998	0.0	0.0	0.0	0.0	0.0	0.0	0.0	0.0	0.0	0.0	0.0	0.0	0.0	0.0	145.86206896551727	0.0	0.031066815	-0.053161485	1.04296608	10.13264	-0.73248	-2.4110799999999997	3288720.0	1776544967.866579	0.0	1.0	-1.0	-1.0	-1.0	-1.0	-1.0	-1.0	-1.0	-1.0	0.0	marker	peace	Peace	25	0418
-68494.005	-54963.765	-104724.72	-18538.02	0.0	0.0	0.0	0.0	0.0	0.0	0.0	0.0	0.0	0.0	0.0	0.0	0.0	0.0	145.86206896551727	0.0	0.031066815	-0.053161485	1.04296608	10.13264	-0.73248	-2.4110799999999997	3288721.0	1776544967.870503	0.0	1.0	-1.0	-1.0	-1.0	-1.0	-1.0	-1.0	-1.0	-1.0	0.0	marker	peace	Peace	25	0418
-68475.06	-54969.704999999994	-104723.09999999999	-18535.364999999998	0.0	0.0	0.0	0.0	0.0	0.0	0.0	0.0	0.0	0.0	0.0	0.0	0.0	0.0	145.86206896551727	0.0	0.031066815	-0.053161485	1.04296608	10.13264	-0.73248	-2.4110799999999997	3288722.0	1776544967.870533	0.0	1.0	-1.0	-1.0	-1.0	-1.0	-1.0	-1.0	-1.0	-1.0	0.0	marker	peace	Peace	25	0418
-68475.15	-54973.89	-104663.61	-18513.945	0.0	0.0	0.0	0.0	0.0	0.0	0.0	0.0	0.0	0.0	0.0	0.0	0.0	0.0	145.86206896551727	0.0	0.031066815	-0.053161485	1.04296608	10.13264	-0.73248	-2.4110799999999997	3288723.0	1776544967.874553	0.0	1.0	-1.0	-1.0	-1.0	-1.0	-1.0	-1.0	-1.0	-1.0	0.0	marker	peace	Peace	25	0418
-68469.84	-54980.415	-104643.405	-18497.43	0.0	0.0	0.0	0.0	0.0	0.0	0.0	0.0	0.0	0.0	0.0	0.0	0.0	0.0	145.86206896551727	0.0	0.031066815	-0.053161485	1.04296608	10.13264	-0.73248	-2.4110799999999997	3288724.0	1776544967.874569	0.0	1.0	-1.0	-1.0	-1.0	-1.0	-1.0	-1.0	-1.0	-1.0	0.0	marker	peace	Peace	25	0418
-68461.245	-54989.505	-104662.75499999999	-18501.614999999998	0.0	0.0	0.0	0.0	0.0	0.0	0.0	0.0	0.0	0.0	0.0	0.0	0.0	0.0	145.86206896551727	0.0	0.031066815	-0.053161485	1.04296608	10.13264	-0.73248	-2.4110799999999997	3288725.0	1776544967.878565	0.0	1.0	-1.0	-1.0	-1.0	-1.0	-1.0	-1.0	-1.0	-1.0	0.0	marker	peace	Peace	25	0418
-68435.73	-54990.09	-104668.605	-18495.045	0.0	0.0	0.0	0.0	0.0	0.0	0.0	0.0	0.0	0.0	0.0	0.0	0.0	0.0	145.86206896551727	0.0	0.031066815	-0.053161485	1.04296608	10.13264	-0.73248	-2.4110799999999997	3288726.0	1776544967.878581	0.0	1.0	-1.0	-1.0	-1.0	-1.0	-1.0	-1.0	-1.0	-1.0	0.0	marker	peace	Peace	25	0418
-68441.4	-54988.65	-104693.04	-18508.815	0.0	0.0	0.0	0.0	0.0	0.0	0.0	0.0	0.0	0.0	0.0	0.0	0.0	0.0	145.86206896551727	0.0	0.030090255	-0.047546265	1.040341575	12.00962	-2.4263399999999997	-2.38056	3288727.0	1776544967.88256	0.0	1.0	-1.0	-1.0	-1.0	-1.0	-1.0	-1.0	-1.0	-1.0	0.0	marker	peace	Peace	25	0418
-68454.675	-54993.42	-104703.885	-18523.53	0.0	0.0	0.0	0.0	0.0	0.0	0.0	0.0	0.0	0.0	0.0	0.0	0.0	0.0	145.86206896551727	0.0	0.030090255	-0.047546265	1.040341575	12.00962	-2.4263399999999997	-2.38056	3288728.0	1776544967.882576	0.0	1.0	-1.0	-1.0	-1.0	-1.0	-1.0	-1.0	-1.0	-1.0	0.0	marker	peace	Peace	25	0418
-68420.565	-54999.99	-104648.355	-18475.605	0.0	0.0	0.0	0.0	0.0	0.0	0.0	0.0	0.0	0.0	0.0	0.0	0.0	0.0	145.86206896551727	0.0	0.030090255	-0.047546265	1.040341575	12.00962	-2.4263399999999997	-2.38056	3288729.0	1776544967.8866	0.0	1.0	-1.0	-1.0	-1.0	-1.0	-1.0	-1.0	-1.0	-1.0	0.0	marker	peace	Peace	25	0418
-68364.63	-55006.47	-104582.11499999999	-18421.875	0.0	0.0	0.0	0.0	0.0	0.0	0.0	0.0	0.0	0.0	0.0	0.0	0.0	0.0	145.86206896551727	0.0	0.030090255	-0.047546265	1.040341575	12.00962	-2.4263399999999997	-2.38056	3288730.0	1776544967.886616	0.0	1.0	-1.0	-1.0	-1.0	-1.0	-1.0	-1.0	-1.0	-1.0	0.0	marker	peace	Peace	25	0418
-68480.81999999999	-55021.994999999995	-104698.44	-18519.12	0.0	0.0	0.0	0.0	0.0	0.0	0.0	0.0	0.0	0.0	0.0	0.0	0.0	0.0	145.86206896551727	0.0	0.030090255	-0.047546265	1.040341575	12.00962	-2.4263399999999997	-2.38056	3288731.0	1776544967.891399	0.0	1.0	-1.0	-1.0	-1.0	-1.0	-1.0	-1.0	-1.0	-1.0	0.0	marker	peace	Peace	25	0418
-68524.11	-55030.365	-104722.01999999999	-18553.59	0.0	0.0	0.0	0.0	0.0	0.0	0.0	0.0	0.0	0.0	0.0	0.0	0.0	0.0	145.86206896551727	0.0	0.030090255	-0.047546265	1.040341575	12.00962	-2.4263399999999997	-2.38056	3288732.0	1776544967.891414	0.0	1.0	-1.0	-1.0	-1.0	-1.0	-1.0	-1.0	-1.0	-1.0	0.0	marker	peace	Peace	25	0418
-68466.23999999999	-55030.994999999995	-104681.83499999999	-18531.63	0.0	0.0	0.0	0.0	0.0	0.0	0.0	0.0	0.0	0.0	0.0	0.0	0.0	0.0	145.86206896551727	0.0	0.030090255	-0.047546265	1.040341575	12.00962	-2.4263399999999997	-2.38056	3288733.0	1776544967.894656	0.0	1.0	-1.0	-1.0	-1.0	-1.0	-1.0	-1.0	-1.0	-1.0	0.0	marker	peace	Peace	25	0418
-68460.61499999999	-55031.13	-104673.105	-18519.12	0.0	0.0	0.0	0.0	0.0	0.0	0.0	0.0	0.0	0.0	0.0	0.0	0.0	0.0	145.86206896551727	0.0	0.030090255	-0.047546265	1.040341575	12.00962	-2.4263399999999997	-2.38056	3288734.0	1776544967.894664	0.0	1.0	-1.0	-1.0	-1.0	-1.0	-1.0	-1.0	-1.0	-1.0	0.0	marker	peace	Peace	25	0418
-68461.83	-55024.695	-104682.915	-18517.41	0.0	0.0	0.0	0.0	0.0	0.0	0.0	0.0	0.0	0.0	0.0	0.0	0.0	0.0	145.86206896551727	0.0	0.030090255	-0.047546265	1.040341575	12.00962	-2.4263399999999997	-2.38056	3288735.0	1776544967.898592	0.0	1.0	-1.0	-1.0	-1.0	-1.0	-1.0	-1.0	-1.0	-1.0	0.0	marker	peace	Peace	25	0418
-68490.27	-55025.505	-104713.69499999999	-18533.34	0.0	0.0	0.0	0.0	0.0	0.0	0.0	0.0	0.0	0.0	0.0	0.0	0.0	0.0	145.86206896551727	0.0	0.030090255	-0.047546265	1.040341575	12.00962	-2.4263399999999997	-2.38056	3288736.0	1776544967.898608	0.0	1.0	-1.0	-1.0	-1.0	-1.0	-1.0	-1.0	-1.0	-1.0	0.0	marker	peace	Peace	25	0418
-68451.12	-55054.395	-104638.95	-18486.855	0.0	0.0	0.0	0.0	0.0	0.0	0.0	0.0	0.0	0.0	0.0	0.0	0.0	0.0	145.86206896551727	0.0	0.03466788	-0.02282709	1.036435335	7.95046	-3.3571999999999997	-1.4039199999999998	3288737.0	1776544967.902667	0.0	1.0	-1.0	-1.0	-1.0	-1.0	-1.0	-1.0	-1.0	-1.0	0.0	marker	peace	Peace	25	0418
-68403.555	-55093.814999999995	-104616.495	-18451.395	0.0	0.0	0.0	0.0	0.0	0.0	0.0	0.0	0.0	0.0	0.0	0.0	0.0	0.0	145.86206896551727	0.0	0.03466788	-0.02282709	1.036435335	7.95046	-3.3571999999999997	-1.4039199999999998	3288738.0	1776544967.902683	0.0	1.0	-1.0	-1.0	-1.0	-1.0	-1.0	-1.0	-1.0	-1.0	0.0	marker	peace	Peace	25	0418
-68411.565	-55108.395	-104635.44	-18473.67	0.0	0.0	0.0	0.0	0.0	0.0	0.0	0.0	0.0	0.0	0.0	0.0	0.0	0.0	145.86206896551727	0.0	0.03466788	-0.02282709	1.036435335	7.95046	-3.3571999999999997	-1.4039199999999998	3288739.0	1776544967.909004	0.0	1.0	-1.0	-1.0	-1.0	-1.0	-1.0	-1.0	-1.0	-1.0	0.0	marker	peace	Peace	25	0418
-68443.965	-55111.095	-104632.47	-18473.985	0.0	0.0	0.0	0.0	0.0	0.0	0.0	0.0	0.0	0.0	0.0	0.0	0.0	0.0	145.86206896551727	0.0	0.03466788	-0.02282709	1.036435335	7.95046	-3.3571999999999997	-1.4039199999999998	3288740.0	1776544967.90902	0.0	1.0	-1.0	-1.0	-1.0	-1.0	-1.0	-1.0	-1.0	-1.0	0.0	marker	peace	Peace	25	0418
-68480.055	-55102.77	-104690.655	-18539.55	0.0	0.0	0.0	0.0	0.0	0.0	0.0	0.0	0.0	0.0	0.0	0.0	0.0	0.0	145.86206896551727	0.0	0.03466788	-0.02282709	1.036435335	7.95046	-3.3571999999999997	-1.4039199999999998	3288741.0	1776544967.913659	0.0	1.0	-1.0	-1.0	-1.0	-1.0	-1.0	-1.0	-1.0	-1.0	0.0	marker	peace	Peace	25	0418
-68473.035	-55091.204999999994	-104698.89	-18539.73	0.0	0.0	0.0	0.0	0.0	0.0	0.0	0.0	0.0	0.0	0.0	0.0	0.0	0.0	145.86206896551727	0.0	0.03466788	-0.02282709	1.036435335	7.95046	-3.3571999999999997	-1.4039199999999998	3288742.0	1776544967.913663	0.0	1.0	-1.0	-1.0	-1.0	-1.0	-1.0	-1.0	-1.0	-1.0	0.0	marker	peace	Peace	25	0418
-68448.735	-55063.845	-104665.545	-18514.71	0.0	0.0	0.0	0.0	0.0	0.0	0.0	0.0	0.0	0.0	0.0	0.0	0.0	0.0	145.86206896551727	0.0	0.03466788	-0.02282709	1.036435335	7.95046	-3.3571999999999997	-1.4039199999999998	3288743.0	1776544967.915896	0.0	1.0	-1.0	-1.0	-1.0	-1.0	-1.0	-1.0	-1.0	-1.0	0.0	marker	peace	Peace	25	0418
-68471.09999999999	-55044.72	-104693.12999999999	-18548.19	0.0	0.0	0.0	0.0	0.0	0.0	0.0	0.0	0.0	0.0	0.0	0.0	0.0	0.0	145.86206896551727	0.0	0.03466788	-0.02282709	1.036435335	7.95046	-3.3571999999999997	-1.4039199999999998	3288744.0	1776544967.915911	0.0	1.0	-1.0	-1.0	-1.0	-1.0	-1.0	-1.0	-1.0	-1.0	0.0	marker	peace	Peace	25	0418
-68498.775	-55036.215	-104731.2	-18572.579999999998	0.0	0.0	0.0	0.0	0.0	0.0	0.0	0.0	0.0	0.0	0.0	0.0	0.0	0.0	145.86206896551727	0.0	0.03466788	-0.02282709	1.036435335	7.95046	-3.3571999999999997	-1.4039199999999998	3288745.0	1776544967.919223	0.0	1.0	-1.0	-1.0	-1.0	-1.0	-1.0	-1.0	-1.0	-1.0	0.0	marker	peace	Peace	25	0418
-68495.715	-55021.95	-104710.59	-18534.645	0.0	0.0	0.0	0.0	0.0	0.0	0.0	0.0	0.0	0.0	0.0	0.0	0.0	0.0	145.86206896551727	0.0	0.03466788	-0.02282709	1.036435335	7.95046	-3.3571999999999997	-1.4039199999999998	3288746.0	1776544967.919239	0.0	1.0	-1.0	-1.0	-1.0	-1.0	-1.0	-1.0	-1.0	-1.0	0.0	marker	peace	Peace	25	0418
-68500.98	-55024.604999999996	-104705.415	-18528.614999999998	0.0	0.0	0.0	0.0	0.0	0.0	0.0	0.0	0.0	0.0	0.0	0.0	0.0	0.0	145.86206896551727	0.0	0.039611715	-0.00500487	1.02612042	-0.44254	-3.3419399999999997	-1.8312	3288747.0	1776544967.92505	0.0	1.0	-1.0	-1.0	-1.0	-1.0	-1.0	-1.0	-1.0	-1.0	0.0	marker	peace	Peace	25	0418
-68484.87	-55031.49	-104684.985	-18512.82	0.0	0.0	0.0	0.0	0.0	0.0	0.0	0.0	0.0	0.0	0.0	0.0	0.0	0.0	145.86206896551727	0.0	0.039611715	-0.00500487	1.02612042	-0.44254	-3.3419399999999997	-1.8312	3288748.0	1776544967.925055	0.0	1.0	-1.0	-1.0	-1.0	-1.0	-1.0	-1.0	-1.0	-1.0	0.0	marker	peace	Peace	25	0418
-68433.3	-55034.505	-104629.68	-18460.844999999998	0.0	0.0	0.0	0.0	0.0	0.0	0.0	0.0	0.0	0.0	0.0	0.0	0.0	0.0	145.86206896551727	0.0	0.039611715	-0.00500487	1.02612042	-0.44254	-3.3419399999999997	-1.8312	3288749.0	1776544967.926759	0.0	1.0	-1.0	-1.0	-1.0	-1.0	-1.0	-1.0	-1.0	-1.0	0.0	marker	peace	Peace	25	0418
-68411.52	-55025.549999999996	-104623.875	-18457.38	0.0	0.0	0.0	0.0	0.0	0.0	0.0	0.0	0.0	0.0	0.0	0.0	0.0	0.0	145.86206896551727	0.0	0.039611715	-0.00500487	1.02612042	-0.44254	-3.3419399999999997	-1.8312	3288750.0	1776544967.926774	0.0	1.0	-1.0	-1.0	-1.0	-1.0	-1.0	-1.0	-1.0	-1.0	0.0	marker	peace	Peace	25	0418
-68514.3	-55021.725	-104721.3	-18551.25	0.0	0.0	0.0	0.0	0.0	0.0	0.0	0.0	0.0	0.0	0.0	0.0	0.0	0.0	145.86206896551727	0.0	0.039611715	-0.00500487	1.02612042	-0.44254	-3.3419399999999997	-1.8312	3288751.0	1776544967.931218	0.0	1.0	-1.0	-1.0	-1.0	-1.0	-1.0	-1.0	-1.0	-1.0	0.0	marker	peace	Peace	25	0418
-68523.84	-55019.07	-104730.93	-18562.995	0.0	0.0	0.0	0.0	0.0	0.0	0.0	0.0	0.0	0.0	0.0	0.0	0.0	0.0	145.86206896551727	0.0	0.039611715	-0.00500487	1.02612042	-0.44254	-3.3419399999999997	-1.8312	3288752.0	1776544967.931233	0.0	1.0	-1.0	-1.0	-1.0	-1.0	-1.0	-1.0	-1.0	-1.0	0.0	marker	peace	Peace	25	0418
-68502.06	-55025.369999999995	-104698.17	-18532.17	0.0	0.0	0.0	0.0	0.0	0.0	0.0	0.0	0.0	0.0	0.0	0.0	0.0	0.0	145.86206896551727	0.0	0.039611715	-0.00500487	1.02612042	-0.44254	-3.3419399999999997	-1.8312	3288753.0	1776544967.935642	0.0	1.0	-1.0	-1.0	-1.0	-1.0	-1.0	-1.0	-1.0	-1.0	0.0	marker	peace	Peace	25	0418
-68480.28	-55035.27	-104678.775	-18520.695	0.0	0.0	0.0	0.0	0.0	0.0	0.0	0.0	0.0	0.0	0.0	0.0	0.0	0.0	145.86206896551727	0.0	0.039611715	-0.00500487	1.02612042	-0.44254	-3.3419399999999997	-1.8312	3288754.0	1776544967.935658	0.0	1.0	-1.0	-1.0	-1.0	-1.0	-1.0	-1.0	-1.0	-1.0	0.0	marker	peace	Peace	25	0418
-68458.14	-55029.465	-104665.095	-18512.55	0.0	0.0	0.0	0.0	0.0	0.0	0.0	0.0	0.0	0.0	0.0	0.0	0.0	0.0	145.86206896551727	0.0	0.039611715	-0.00500487	1.02612042	-0.44254	-3.3419399999999997	-1.8312	3288755.0	1776544967.939149	0.0	1.0	-1.0	-1.0	-1.0	-1.0	-1.0	-1.0	-1.0	-1.0	0.0	marker	peace	Peace	25	0418
-68437.17	-55020.869999999995	-104655.465	-18505.8	0.0	0.0	0.0	0.0	0.0	0.0	0.0	0.0	0.0	0.0	0.0	0.0	0.0	0.0	145.86206896551727	0.0	0.039611715	-0.00500487	1.02612042	-0.44254	-3.3419399999999997	-1.8312	3288756.0	1776544967.939154	0.0	1.0	-1.0	-1.0	-1.0	-1.0	-1.0	-1.0	-1.0	-1.0	0.0	marker	peace	Peace	25	0418
-68407.65	-55025.505	-104629.76999999999	-18463.364999999998	0.0	0.0	0.0	0.0	0.0	0.0	0.0	0.0	0.0	0.0	0.0	0.0	0.0	0.0	145.86206896551727	0.0	0.041686905	-0.007385235	1.01281479	-2.92992	-2.48738	0.6103999999999999	3288757.0	1776544968.039119	0.0	1.0	-1.0	-1.0	-1.0	-1.0	-1.0	-1.0	-1.0	-1.0	0.0	marker	peace	Peace	25	0418
-68443.02	-55016.235	-104642.775	-18483.93	0.0	0.0	0.0	0.0	0.0	0.0	0.0	0.0	0.0	0.0	0.0	0.0	0.0	0.0	145.86206896551727	0.0	0.041686905	-0.007385235	1.01281479	-2.92992	-2.48738	0.6103999999999999	3288758.0	1776544968.039147	0.0	1.0	-1.0	-1.0	-1.0	-1.0	-1.0	-1.0	-1.0	-1.0	0.0	marker	peace	Peace	25	0418
-68514.84	-55006.335	-104711.265	-18558.765	0.0	0.0	0.0	0.0	0.0	0.0	0.0	0.0	0.0	0.0	0.0	0.0	0.0	0.0	145.86206896551727	0.0	0.041686905	-0.007385235	1.01281479	-2.92992	-2.48738	0.6103999999999999	3288759.0	1776544968.039276	0.0	1.0	-1.0	-1.0	-1.0	-1.0	-1.0	-1.0	-1.0	-1.0	0.0	marker	peace	Peace	25	0418
-68491.665	-54993.329999999994	-104687.415	-18504.18	0.0	0.0	0.0	0.0	0.0	0.0	0.0	0.0	0.0	0.0	0.0	0.0	0.0	0.0	145.86206896551727	0.0	0.041686905	-0.007385235	1.01281479	-2.92992	-2.48738	0.6103999999999999	3288760.0	1776544968.039309	0.0	1.0	-1.0	-1.0	-1.0	-1.0	-1.0	-1.0	-1.0	-1.0	0.0	marker	peace	Peace	25	0418
-68459.265	-54992.34	-104677.47	-18526.32	0.0	0.0	0.0	0.0	0.0	0.0	0.0	0.0	0.0	0.0	0.0	0.0	0.0	0.0	145.86206896551727	0.0	0.041686905	-0.007385235	1.01281479	-2.92992	-2.48738	0.6103999999999999	3288761.0	1776544968.039361	0.0	1.0	-1.0	-1.0	-1.0	-1.0	-1.0	-1.0	-1.0	-1.0	0.0	marker	peace	Peace	25	0418
-68471.325	-54992.475	-104698.17	-18552.78	0.0	0.0	0.0	0.0	0.0	0.0	0.0	0.0	0.0	0.0	0.0	0.0	0.0	0.0	145.86206896551727	0.0	0.041686905	-0.007385235	1.01281479	-2.92992	-2.48738	0.6103999999999999	3288762.0	1776544968.039399	0.0	1.0	-1.0	-1.0	-1.0	-1.0	-1.0	-1.0	-1.0	-1.0	0.0	marker	peace	Peace	25	0418
-68456.52	-54994.68	-104689.08	-18526.59	0.0	0.0	0.0	0.0	0.0	0.0	0.0	0.0	0.0	0.0	0.0	0.0	0.0	0.0	145.86206896551727	0.0	0.041686905	-0.007385235	1.01281479	-2.92992	-2.48738	0.6103999999999999	3288763.0	1776544968.039417	0.0	1.0	-1.0	-1.0	-1.0	-1.0	-1.0	-1.0	-1.0	-1.0	0.0	marker	peace	Peace	25	0418
-68454.855	-55001.43	-104652.26999999999	-18502.38	0.0	0.0	0.0	0.0	0.0	0.0	0.0	0.0	0.0	0.0	0.0	0.0	0.0	0.0	145.86206896551727	0.0	0.041686905	-0.007385235	1.01281479	-2.92992	-2.48738	0.6103999999999999	3288764.0	1776544968.039428	0.0	1.0	-1.0	-1.0	-1.0	-1.0	-1.0	-1.0	-1.0	-1.0	0.0	marker	peace	Peace	25	0418
-68450.805	-55010.655	-104651.955	-18504.36	0.0	0.0	0.0	0.0	0.0	0.0	0.0	0.0	0.0	0.0	0.0	0.0	0.0	0.0	145.86206896551727	0.0	0.041686905	-0.007385235	1.01281479	-2.92992	-2.48738	0.6103999999999999	3288765.0	1776544968.039442	0.0	1.0	-1.0	-1.0	-1.0	-1.0	-1.0	-1.0	-1.0	-1.0	0.0	marker	peace	Peace	25	0418
-68454.54	-55019.43	-104680.125	-18526.68	0.0	0.0	0.0	0.0	0.0	0.0	0.0	0.0	0.0	0.0	0.0	0.0	0.0	0.0	145.86206896551727	0.0	0.041686905	-0.007385235	1.01281479	-2.92992	-2.48738	0.6103999999999999	3288766.0	1776544968.039452	0.0	1.0	-1.0	-1.0	-1.0	-1.0	-1.0	-1.0	-1.0	-1.0	0.0	marker	peace	Peace	25	0418
-68473.44	-55019.744999999995	-104671.215	-18532.395	0.0	0.0	0.0	0.0	0.0	0.0	0.0	0.0	0.0	0.0	0.0	0.0	0.0	0.0	145.86206896551727	0.0	0.044128305	-0.03308097	1.009213725	0.88508	-1.8617199999999998	-0.2289	3288767.0	1776544968.039491	0.0	1.0	-1.0	-1.0	-1.0	-1.0	-1.0	-1.0	-1.0	-1.0	0.0	marker	peace	Peace	25	0418
-68457.465	-55006.875	-104637.42	-18504.855	0.0	0.0	0.0	0.0	0.0	0.0	0.0	0.0	0.0	0.0	0.0	0.0	0.0	0.0	145.86206896551727	0.0	0.044128305	-0.03308097	1.009213725	0.88508	-1.8617199999999998	-0.2289	3288768.0	1776544968.039502	0.0	1.0	-1.0	-1.0	-1.0	-1.0	-1.0	-1.0	-1.0	-1.0	0.0	marker	peace	Peace	25	0418
-68468.355	-55006.829999999994	-104678.86499999999	-18505.89	0.0	0.0	0.0	0.0	0.0	0.0	0.0	0.0	0.0	0.0	0.0	0.0	0.0	0.0	145.86206896551727	0.0	0.044128305	-0.03308097	1.009213725	0.88508	-1.8617199999999998	-0.2289	3288769.0	1776544968.039516	0.0	1.0	-1.0	-1.0	-1.0	-1.0	-1.0	-1.0	-1.0	-1.0	0.0	marker	peace	Peace	25	0418
-68505.93	-55009.71	-104730.61499999999	-18535.905	0.0	0.0	0.0	0.0	0.0	0.0	0.0	0.0	0.0	0.0	0.0	0.0	0.0	0.0	145.86206896551727	0.0	0.044128305	-0.03308097	1.009213725	0.88508	-1.8617199999999998	-0.2289	3288770.0	1776544968.039526	0.0	1.0	-1.0	-1.0	-1.0	-1.0	-1.0	-1.0	-1.0	-1.0	0.0	marker	peace	Peace	25	0418
-68482.62	-55019.159999999996	-104692.68	-18519.57	0.0	0.0	0.0	0.0	0.0	0.0	0.0	0.0	0.0	0.0	0.0	0.0	0.0	0.0	145.86206896551727	0.0	0.044128305	-0.03308097	1.009213725	0.88508	-1.8617199999999998	-0.2289	3288771.0	1776544968.03954	0.0	1.0	-1.0	-1.0	-1.0	-1.0	-1.0	-1.0	-1.0	-1.0	0.0	marker	peace	Peace	25	0418
-68462.86499999999	-55034.189999999995	-104670.405	-18508.005	0.0	0.0	0.0	0.0	0.0	0.0	0.0	0.0	0.0	0.0	0.0	0.0	0.0	0.0	145.86206896551727	0.0	0.044128305	-0.03308097	1.009213725	0.88508	-1.8617199999999998	-0.2289	3288772.0	1776544968.039548	0.0	1.0	-1.0	-1.0	-1.0	-1.0	-1.0	-1.0	-1.0	-1.0	0.0	marker	peace	Peace	25	0418
-68471.73	-55034.505	-104698.575	-18521.55	0.0	0.0	0.0	0.0	0.0	0.0	0.0	0.0	0.0	0.0	0.0	0.0	0.0	0.0	145.86206896551727	0.0	0.044128305	-0.03308097	1.009213725	0.88508	-1.8617199999999998	-0.2289	3288773.0	1776544968.039561	0.0	1.0	-1.0	-1.0	-1.0	-1.0	-1.0	-1.0	-1.0	-1.0	0.0	marker	peace	Peace	25	0418
-68469.345	-55021.005	-104678.685	-18516.6	0.0	0.0	0.0	0.0	0.0	0.0	0.0	0.0	0.0	0.0	0.0	0.0	0.0	0.0	145.86206896551727	0.0	0.044128305	-0.03308097	1.009213725	0.88508	-1.8617199999999998	-0.2289	3288774.0	1776544968.03957	0.0	1.0	-1.0	-1.0	-1.0	-1.0	-1.0	-1.0	-1.0	-1.0	0.0	marker	peace	Peace	25	0418
-68441.895	-55007.369999999995	-104636.15999999999	-18477.945	0.0	0.0	0.0	0.0	0.0	0.0	0.0	0.0	0.0	0.0	0.0	0.0	0.0	0.0	145.86206896551727	0.0	0.044128305	-0.03308097	1.009213725	0.88508	-1.8617199999999998	-0.2289	3288775.0	1776544968.039582	0.0	1.0	-1.0	-1.0	-1.0	-1.0	-1.0	-1.0	-1.0	-1.0	0.0	marker	peace	Peace	25	0418
-68465.34	-54995.13	-104692.59	-18522.45	0.0	0.0	0.0	0.0	0.0	0.0	0.0	0.0	0.0	0.0	0.0	0.0	0.0	0.0	145.86206896551727	0.0	0.044128305	-0.03308097	1.009213725	0.88508	-1.8617199999999998	-0.2289	3288776.0	1776544968.039591	0.0	1.0	-1.0	-1.0	-1.0	-1.0	-1.0	-1.0	-1.0	-1.0	0.0	marker	peace	Peace	25	0418
-68516.37	-54987.84	-104752.935	-18603.719999999998	0.0	0.0	0.0	0.0	0.0	0.0	0.0	0.0	0.0	0.0	0.0	0.0	0.0	0.0	145.86206896551727	0.0	0.05212389	-0.046569705	1.00939683	4.02864	-1.64808	-0.25942	3288777.0	1776544968.039603	0.0	1.0	-1.0	-1.0	-1.0	-1.0	-1.0	-1.0	-1.0	-1.0	0.0	marker	peace	Peace	25	0418
-68489.55	-54979.335	-104692.14	-18550.215	0.0	0.0	0.0	0.0	0.0	0.0	0.0	0.0	0.0	0.0	0.0	0.0	0.0	0.0	145.86206896551727	0.0	0.05212389	-0.046569705	1.00939683	4.02864	-1.64808	-0.25942	3288778.0	1776544968.039614	0.0	1.0	-1.0	-1.0	-1.0	-1.0	-1.0	-1.0	-1.0	-1.0	0.0	marker	peace	Peace	25	0418
-68457.59999999999	-54980.145	-104639.265	-18480.239999999998	0.0	0.0	0.0	0.0	0.0	0.0	0.0	0.0	0.0	0.0	0.0	0.0	0.0	0.0	145.86206896551727	0.0	0.05212389	-0.046569705	1.00939683	4.02864	-1.64808	-0.25942	3288779.0	1776544968.039625	0.0	1.0	-1.0	-1.0	-1.0	-1.0	-1.0	-1.0	-1.0	-1.0	0.0	marker	peace	Peace	25	0418
-68406.61499999999	-54990.18	-104599.305	-18437.489999999998	0.0	0.0	0.0	0.0	0.0	0.0	0.0	0.0	0.0	0.0	0.0	0.0	0.0	0.0	145.86206896551727	0.0	0.05212389	-0.046569705	1.00939683	4.02864	-1.64808	-0.25942	3288780.0	1776544968.039634	0.0	1.0	-1.0	-1.0	-1.0	-1.0	-1.0	-1.0	-1.0	-1.0	0.0	marker	peace	Peace	25	0418
-68424.48	-55000.439999999995	-104652.765	-18470.745	0.0	0.0	0.0	0.0	0.0	0.0	0.0	0.0	0.0	0.0	0.0	0.0	0.0	0.0	145.86206896551727	0.0	0.05212389	-0.046569705	1.00939683	4.02864	-1.64808	-0.25942	3288781.0	1776544968.039645	0.0	1.0	-1.0	-1.0	-1.0	-1.0	-1.0	-1.0	-1.0	-1.0	0.0	marker	peace	Peace	25	0418
-68507.595	-55004.805	-104704.33499999999	-18523.844999999998	0.0	0.0	0.0	0.0	0.0	0.0	0.0	0.0	0.0	0.0	0.0	0.0	0.0	0.0	145.86206896551727	0.0	0.05212389	-0.046569705	1.00939683	4.02864	-1.64808	-0.25942	3288782.0	1776544968.039653	0.0	1.0	-1.0	-1.0	-1.0	-1.0	-1.0	-1.0	-1.0	-1.0	0.0	marker	peace	Peace	25	0418
-68494.275	-55000.755	-104669.90999999999	-18494.46	0.0	0.0	0.0	0.0	0.0	0.0	0.0	0.0	0.0	0.0	0.0	0.0	0.0	0.0	145.86206896551727	0.0	0.05212389	-0.046569705	1.00939683	4.02864	-1.64808	-0.25942	3288783.0	1776544968.039664	0.0	1.0	-1.0	-1.0	-1.0	-1.0	-1.0	-1.0	-1.0	-1.0	0.0	marker	peace	Peace	25	0418
-68449.905	-54986.939999999995	-104662.39499999999	-18514.44	0.0	0.0	0.0	0.0	0.0	0.0	0.0	0.0	0.0	0.0	0.0	0.0	0.0	0.0	145.86206896551727	0.0	0.05212389	-0.046569705	1.00939683	4.02864	-1.64808	-0.25942	3288784.0	1776544968.039672	0.0	1.0	-1.0	-1.0	-1.0	-1.0	-1.0	-1.0	-1.0	-1.0	0.0	marker	peace	Peace	25	0418
-68450.175	-54974.52	-104669.775	-18498.329999999998	0.0	0.0	0.0	0.0	0.0	0.0	0.0	0.0	0.0	0.0	0.0	0.0	0.0	0.0	145.86206896551727	0.0	0.05212389	-0.046569705	1.00939683	4.02864	-1.64808	-0.25942	3288785.0	1776544968.039684	0.0	1.0	-1.0	-1.0	-1.0	-1.0	-1.0	-1.0	-1.0	-1.0	0.0	marker	peace	Peace	25	0418
-68482.575	-54966.555	-104702.67	-18525.42	0.0	0.0	0.0	0.0	0.0	0.0	0.0	0.0	0.0	0.0	0.0	0.0	0.0	0.0	145.86206896551727	0.0	0.05212389	-0.046569705	1.00939683	4.02864	-1.64808	-0.25942	3288786.0	1776544968.039692	0.0	1.0	-1.0	-1.0	-1.0	-1.0	-1.0	-1.0	-1.0	-1.0	0.0	marker	peace	Peace	25	0418
-68499.27	-54967.814999999995	-104712.93	-18531.719999999998	0.0	0.0	0.0	0.0	0.0	0.0	0.0	0.0	0.0	0.0	0.0	0.0	0.0	0.0	145.86206896551727	0.0	0.056457375000000004	-0.03747549	1.00817613	3.0672599999999997	-0.33571999999999996	0.24416	3288787.0	1776544968.039702	0.0	1.0	-1.0	-1.0	-1.0	-1.0	-1.0	-1.0	-1.0	-1.0	0.0	marker	peace	Peace	25	0418
-68455.89	-54965.07	-104668.69499999999	-18512.505	0.0	0.0	0.0	0.0	0.0	0.0	0.0	0.0	0.0	0.0	0.0	0.0	0.0	0.0	145.86206896551727	0.0	0.056457375000000004	-0.03747549	1.00817613	3.0672599999999997	-0.33571999999999996	0.24416	3288788.0	1776544968.039735	0.0	1.0	-1.0	-1.0	-1.0	-1.0	-1.0	-1.0	-1.0	-1.0	0.0	marker	peace	Peace	25	0418
-68431.68	-54962.189999999995	-104631.3	-18487.035	0.0	0.0	0.0	0.0	0.0	0.0	0.0	0.0	0.0	0.0	0.0	0.0	0.0	0.0	145.86206896551727	0.0	0.056457375000000004	-0.03747549	1.00817613	3.0672599999999997	-0.33571999999999996	0.24416	3288789.0	1776544968.039747	0.0	1.0	-1.0	-1.0	-1.0	-1.0	-1.0	-1.0	-1.0	-1.0	0.0	marker	peace	Peace	25	0418
-68462.19	-54964.799999999996	-104638.455	-18505.665	0.0	0.0	0.0	0.0	0.0	0.0	0.0	0.0	0.0	0.0	0.0	0.0	0.0	0.0	145.86206896551727	0.0	0.056457375000000004	-0.03747549	1.00817613	3.0672599999999997	-0.33571999999999996	0.24416	3288790.0	1776544968.039755	0.0	1.0	-1.0	-1.0	-1.0	-1.0	-1.0	-1.0	-1.0	-1.0	0.0	marker	peace	Peace	25	0418
-68467.77	-54963.72	-104650.065	-18517.905	0.0	0.0	0.0	0.0	0.0	0.0	0.0	0.0	0.0	0.0	0.0	0.0	0.0	0.0	145.86206896551727	0.0	0.056457375000000004	-0.03747549	1.00817613	3.0672599999999997	-0.33571999999999996	0.24416	3288791.0	1776544968.039767	0.0	1.0	-1.0	-1.0	-1.0	-1.0	-1.0	-1.0	-1.0	-1.0	0.0	marker	peace	Peace	25	0418
-68509.665	-54973.665	-104729.76	-18572.805	0.0	0.0	0.0	0.0	0.0	0.0	0.0	0.0	0.0	0.0	0.0	0.0	0.0	0.0	145.86206896551727	0.0	0.056457375000000004	-0.03747549	1.00817613	3.0672599999999997	-0.33571999999999996	0.24416	3288792.0	1776544968.039775	0.0	1.0	-1.0	-1.0	-1.0	-1.0	-1.0	-1.0	-1.0	-1.0	0.0	marker	peace	Peace	25	0418
-68511.69	-54977.13	-104757.84	-18582.614999999998	0.0	0.0	0.0	0.0	0.0	0.0	0.0	0.0	0.0	0.0	0.0	0.0	0.0	0.0	145.86206896551727	0.0	0.056457375000000004	-0.03747549	1.00817613	3.0672599999999997	-0.33571999999999996	0.24416	3288793.0	1776544968.039786	0.0	1.0	-1.0	-1.0	-1.0	-1.0	-1.0	-1.0	-1.0	-1.0	0.0	marker	peace	Peace	25	0418
-68497.69499999999	-54969.795	-104724.855	-18553.41	0.0	0.0	0.0	0.0	0.0	0.0	0.0	0.0	0.0	0.0	0.0	0.0	0.0	0.0	145.86206896551727	0.0	0.056457375000000004	-0.03747549	1.00817613	3.0672599999999997	-0.33571999999999996	0.24416	3288794.0	1776544968.039795	0.0	1.0	-1.0	-1.0	-1.0	-1.0	-1.0	-1.0	-1.0	-1.0	0.0	marker	peace	Peace	25	0418
-68490.765	-54966.645	-104712.3	-18546.12	0.0	0.0	0.0	0.0	0.0	0.0	0.0	0.0	0.0	0.0	0.0	0.0	0.0	0.0	145.86206896551727	0.0	0.056457375000000004	-0.03747549	1.00817613	3.0672599999999997	-0.33571999999999996	0.24416	3288795.0	1776544968.039805	0.0	1.0	-1.0	-1.0	-1.0	-1.0	-1.0	-1.0	-1.0	-1.0	0.0	marker	peace	Peace	25	0418
-68495.44499999999	-54962.865	-104704.875	-18544.59	0.0	0.0	0.0	0.0	0.0	0.0	0.0	0.0	0.0	0.0	0.0	0.0	0.0	0.0	145.86206896551727	0.0	0.056457375000000004	-0.03747549	1.00817613	3.0672599999999997	-0.33571999999999996	0.24416	3288796.0	1776544968.039813	0.0	1.0	-1.0	-1.0	-1.0	-1.0	-1.0	-1.0	-1.0	-1.0	0.0	marker	peace	Peace	25	0418
-68491.035	-54967.32	-104683.455	-18519.39	0.0	0.0	0.0	0.0	0.0	0.0	0.0	0.0	0.0	0.0	0.0	0.0	0.0	0.0	145.86206896551727	0.0	0.053893905	-0.026061945	1.006284045	-0.6714399999999999	0.16785999999999998	2.10588	3288797.0	1776544968.039824	0.0	1.0	-1.0	-1.0	-1.0	-1.0	-1.0	-1.0	-1.0	-1.0	0.0	marker	peace	Peace	25	0418
-68422.005	-54968.13	-104648.58	-18478.485	0.0	0.0	0.0	0.0	0.0	0.0	0.0	0.0	0.0	0.0	0.0	0.0	0.0	0.0	145.86206896551727	0.0	0.053893905	-0.026061945	1.006284045	-0.6714399999999999	0.16785999999999998	2.10588	3288798.0	1776544968.039832	0.0	1.0	-1.0	-1.0	-1.0	-1.0	-1.0	-1.0	-1.0	-1.0	0.0	marker	peace	Peace	25	0418
-68377.77	-54971.369999999995	-104633.055	-18465.84	0.0	0.0	0.0	0.0	0.0	0.0	0.0	0.0	0.0	0.0	0.0	0.0	0.0	0.0	145.86206896551727	0.0	0.053893905	-0.026061945	1.006284045	-0.6714399999999999	0.16785999999999998	2.10588	3288799.0	1776544968.039842	0.0	1.0	-1.0	-1.0	-1.0	-1.0	-1.0	-1.0	-1.0	-1.0	0.0	marker	peace	Peace	25	0418
-68444.81999999999	-54973.979999999996	-104663.565	-18501.165	0.0	0.0	0.0	0.0	0.0	0.0	0.0	0.0	0.0	0.0	0.0	0.0	0.0	0.0	145.86206896551727	0.0	0.053893905	-0.026061945	1.006284045	-0.6714399999999999	0.16785999999999998	2.10588	3288800.0	1776544968.039851	0.0	1.0	-1.0	-1.0	-1.0	-1.0	-1.0	-1.0	-1.0	-1.0	0.0	marker	peace	Peace	25	0418
-68516.37	-54969.21	-104716.665	-18541.844999999998	0.0	0.0	0.0	0.0	0.0	0.0	0.0	0.0	0.0	0.0	0.0	0.0	0.0	0.0	145.86206896551727	0.0	0.053893905	-0.026061945	1.006284045	-0.6714399999999999	0.16785999999999998	2.10588	3288801.0	1776544968.039861	0.0	1.0	-1.0	-1.0	-1.0	-1.0	-1.0	-1.0	-1.0	-1.0	0.0	marker	peace	Peace	25	0418
-68485.995	-54953.865	-104693.53499999999	-18531.989999999998	0.0	0.0	0.0	0.0	0.0	0.0	0.0	0.0	0.0	0.0	0.0	0.0	0.0	0.0	145.86206896551727	0.0	0.053893905	-0.026061945	1.006284045	-0.6714399999999999	0.16785999999999998	2.10588	3288802.0	1776544968.039869	0.0	1.0	-1.0	-1.0	-1.0	-1.0	-1.0	-1.0	-1.0	-1.0	0.0	marker	peace	Peace	25	0418
-68458.995	-54937.619999999995	-104694.65999999999	-18543.42	0.0	0.0	0.0	0.0	0.0	0.0	0.0	0.0	0.0	0.0	0.0	0.0	0.0	0.0	145.86206896551727	0.0	0.053893905	-0.026061945	1.006284045	-0.6714399999999999	0.16785999999999998	2.10588	3288803.0	1776544968.03988	0.0	1.0	-1.0	-1.0	-1.0	-1.0	-1.0	-1.0	-1.0	-1.0	0.0	marker	peace	Peace	25	0418
-68465.205	-54940.545	-104711.805	-18552.6	0.0	0.0	0.0	0.0	0.0	0.0	0.0	0.0	0.0	0.0	0.0	0.0	0.0	0.0	145.86206896551727	0.0	0.053893905	-0.026061945	1.006284045	-0.6714399999999999	0.16785999999999998	2.10588	3288804.0	1776544968.039888	0.0	1.0	-1.0	-1.0	-1.0	-1.0	-1.0	-1.0	-1.0	-1.0	0.0	marker	peace	Peace	25	0418
-68430.19499999999	-54949.77	-104631.75	-18460.079999999998	0.0	0.0	0.0	0.0	0.0	0.0	0.0	0.0	0.0	0.0	0.0	0.0	0.0	0.0	145.86206896551727	0.0	0.053893905	-0.026061945	1.006284045	-0.6714399999999999	0.16785999999999998	2.10588	3288805.0	1776544968.039898	0.0	1.0	-1.0	-1.0	-1.0	-1.0	-1.0	-1.0	-1.0	-1.0	0.0	marker	peace	Peace	25	0418
-68463.94499999999	-54968.22	-104648.805	-18487.079999999998	0.0	0.0	0.0	0.0	0.0	0.0	0.0	0.0	0.0	0.0	0.0	0.0	0.0	0.0	145.86206896551727	0.0	0.053893905	-0.026061945	1.006284045	-0.6714399999999999	0.16785999999999998	2.10588	3288806.0	1776544968.039906	0.0	1.0	-1.0	-1.0	-1.0	-1.0	-1.0	-1.0	-1.0	-1.0	0.0	marker	peace	Peace	25	0418
-68514.705	-54975.869999999995	-104696.01	-18550.125	0.0	0.0	0.0	0.0	0.0	0.0	0.0	0.0	0.0	0.0	0.0	0.0	0.0	0.0	145.86206896551727	0.0	0.044860725000000004	-0.02673333	1.01281479	-1.51074	-0.27468	2.09062	3288807.0	1776544968.04603	0.0	1.0	-1.0	-1.0	-1.0	-1.0	-1.0	-1.0	-1.0	-1.0	0.0	marker	peace	Peace	25	0418
-68500.89	-54967.409999999996	-104694.435	-18545.219999999998	0.0	0.0	0.0	0.0	0.0	0.0	0.0	0.0	0.0	0.0	0.0	0.0	0.0	0.0	145.86206896551727	0.0	0.044860725000000004	-0.02673333	1.01281479	-1.51074	-0.27468	2.09062	3288808.0	1776544968.046052	0.0	1.0	-1.0	-1.0	-1.0	-1.0	-1.0	-1.0	-1.0	-1.0	0.0	marker	peace	Peace	25	0418
-68476.77	-54956.52	-104697.765	-18524.25	0.0	0.0	0.0	0.0	0.0	0.0	0.0	0.0	0.0	0.0	0.0	0.0	0.0	0.0	145.86206896551727	0.0	0.044860725000000004	-0.02673333	1.01281479	-1.51074	-0.27468	2.09062	3288809.0	1776544968.047517	0.0	1.0	-1.0	-1.0	-1.0	-1.0	-1.0	-1.0	-1.0	-1.0	0.0	marker	peace	Peace	25	0418
-68472.58499999999	-54943.695	-104699.34	-18520.2	0.0	0.0	0.0	0.0	0.0	0.0	0.0	0.0	0.0	0.0	0.0	0.0	0.0	0.0	145.86206896551727	0.0	0.044860725000000004	-0.02673333	1.01281479	-1.51074	-0.27468	2.09062	3288810.0	1776544968.047552	0.0	1.0	-1.0	-1.0	-1.0	-1.0	-1.0	-1.0	-1.0	-1.0	0.0	marker	peace	Peace	25	0418
-68458.59	-54932.265	-104696.415	-18527.085	0.0	0.0	0.0	0.0	0.0	0.0	0.0	0.0	0.0	0.0	0.0	0.0	0.0	0.0	145.86206896551727	0.0	0.044860725000000004	-0.02673333	1.01281479	-1.51074	-0.27468	2.09062	3288811.0	1776544968.051372	0.0	1.0	-1.0	-1.0	-1.0	-1.0	-1.0	-1.0	-1.0	-1.0	0.0	marker	peace	Peace	25	0418
-68473.8	-54926.145	-104695.83	-18529.515	0.0	0.0	0.0	0.0	0.0	0.0	0.0	0.0	0.0	0.0	0.0	0.0	0.0	0.0	145.86206896551727	0.0	0.044860725000000004	-0.02673333	1.01281479	-1.51074	-0.27468	2.09062	3288812.0	1776544968.05139	0.0	1.0	-1.0	-1.0	-1.0	-1.0	-1.0	-1.0	-1.0	-1.0	0.0	marker	peace	Peace	25	0418
-68450.22	-54924.165	-104674.72499999999	-18517.815	0.0	0.0	0.0	0.0	0.0	0.0	0.0	0.0	0.0	0.0	0.0	0.0	0.0	0.0	145.86206896551727	0.0	0.044860725000000004	-0.02673333	1.01281479	-1.51074	-0.27468	2.09062	3288813.0	1776544968.055152	0.0	1.0	-1.0	-1.0	-1.0	-1.0	-1.0	-1.0	-1.0	-1.0	0.0	marker	peace	Peace	25	0418
-68360.805	-54932.534999999996	-104592.69	-18440.73	0.0	0.0	0.0	0.0	0.0	0.0	0.0	0.0	0.0	0.0	0.0	0.0	0.0	0.0	145.86206896551727	0.0	0.044860725000000004	-0.02673333	1.01281479	-1.51074	-0.27468	2.09062	3288814.0	1776544968.055182	0.0	1.0	-1.0	-1.0	-1.0	-1.0	-1.0	-1.0	-1.0	-1.0	0.0	marker	peace	Peace	25	0418
-68364.18	-54937.485	-104571.045	-18414.135	0.0	0.0	0.0	0.0	0.0	0.0	0.0	0.0	0.0	0.0	0.0	0.0	0.0	0.0	145.86206896551727	0.0	0.044860725000000004	-0.02673333	1.01281479	-1.51074	-0.27468	2.09062	3288815.0	1776544968.059075	0.0	1.0	-1.0	-1.0	-1.0	-1.0	-1.0	-1.0	-1.0	-1.0	0.0	marker	peace	Peace	25	0418
-68471.325	-54937.89	-104693.94	-18521.46	0.0	0.0	0.0	0.0	0.0	0.0	0.0	0.0	0.0	0.0	0.0	0.0	0.0	0.0	145.86206896551727	0.0	0.044860725000000004	-0.02673333	1.01281479	-1.51074	-0.27468	2.09062	3288816.0	1776544968.059088	0.0	1.0	-1.0	-1.0	-1.0	-1.0	-1.0	-1.0	-1.0	-1.0	0.0	marker	peace	Peace	25	0418
-68544.045	-54935.909999999996	-104757.93	-18588.555	0.0	0.0	0.0	0.0	0.0	0.0	0.0	0.0	0.0	0.0	0.0	0.0	0.0	0.0	145.86206896551727	0.0	0.042053115	-0.036559965	1.013852385	0.21364	0.07629999999999999	1.55652	3288817.0	1776544968.065139	0.0	1.0	-1.0	-1.0	-1.0	-1.0	-1.0	-1.0	-1.0	-1.0	0.0	marker	peace	Peace	25	0418
-68517.765	-54925.829999999994	-104712.3	-18558.54	0.0	0.0	0.0	0.0	0.0	0.0	0.0	0.0	0.0	0.0	0.0	0.0	0.0	0.0	145.86206896551727	0.0	0.042053115	-0.036559965	1.013852385	0.21364	0.07629999999999999	1.55652	3288818.0	1776544968.065174	0.0	1.0	-1.0	-1.0	-1.0	-1.0	-1.0	-1.0	-1.0	-1.0	0.0	marker	peace	Peace	25	0418
-68463.63	-54915.21	-104666.805	-18521.864999999998	0.0	0.0	0.0	0.0	0.0	0.0	0.0	0.0	0.0	0.0	0.0	0.0	0.0	0.0	145.86206896551727	0.0	0.042053115	-0.036559965	1.013852385	0.21364	0.07629999999999999	1.55652	3288819.0	1776544968.067362	0.0	1.0	-1.0	-1.0	-1.0	-1.0	-1.0	-1.0	-1.0	-1.0	0.0	marker	peace	Peace	25	0418
-68496.20999999999	-54901.619999999995	-104689.62	-18540.989999999998	0.0	0.0	0.0	0.0	0.0	0.0	0.0	0.0	0.0	0.0	0.0	0.0	0.0	0.0	145.86206896551727	0.0	0.042053115	-0.036559965	1.013852385	0.21364	0.07629999999999999	1.55652	3288820.0	1776544968.067381	0.0	1.0	-1.0	-1.0	-1.0	-1.0	-1.0	-1.0	-1.0	-1.0	0.0	marker	peace	Peace	25	0418
-68518.665	-54892.575	-104728.72499999999	-18576.27	0.0	0.0	0.0	0.0	0.0	0.0	0.0	0.0	0.0	0.0	0.0	0.0	0.0	0.0	145.86206896551727	0.0	0.042053115	-0.036559965	1.013852385	0.21364	0.07629999999999999	1.55652	3288821.0	1776544968.07123	0.0	1.0	-1.0	-1.0	-1.0	-1.0	-1.0	-1.0	-1.0	-1.0	0.0	marker	peace	Peace	25	0418
-68497.2	-54891.99	-104721.61499999999	-18567.945	0.0	0.0	0.0	0.0	0.0	0.0	0.0	0.0	0.0	0.0	0.0	0.0	0.0	0.0	145.86206896551727	0.0	0.042053115	-0.036559965	1.013852385	0.21364	0.07629999999999999	1.55652	3288822.0	1776544968.071252	0.0	1.0	-1.0	-1.0	-1.0	-1.0	-1.0	-1.0	-1.0	-1.0	0.0	marker	peace	Peace	25	0418
-68507.28	-54889.11	-104672.565	-18514.079999999998	0.0	0.0	0.0	0.0	0.0	0.0	0.0	0.0	0.0	0.0	0.0	0.0	0.0	0.0	145.86206896551727	0.0	0.042053115	-0.036559965	1.013852385	0.21364	0.07629999999999999	1.55652	3288823.0	1776544968.075525	0.0	1.0	-1.0	-1.0	-1.0	-1.0	-1.0	-1.0	-1.0	-1.0	0.0	marker	peace	Peace	25	0418
-68495.58	-54887.579999999994	-104678.09999999999	-18512.28	0.0	0.0	0.0	0.0	0.0	0.0	0.0	0.0	0.0	0.0	0.0	0.0	0.0	0.0	145.86206896551727	0.0	0.042053115	-0.036559965	1.013852385	0.21364	0.07629999999999999	1.55652	3288824.0	1776544968.075537	0.0	1.0	-1.0	-1.0	-1.0	-1.0	-1.0	-1.0	-1.0	-1.0	0.0	marker	peace	Peace	25	0418
-68437.485	-54876.24	-104668.33499999999	-18504.809999999998	0.0	0.0	0.0	0.0	0.0	0.0	0.0	0.0	0.0	0.0	0.0	0.0	0.0	0.0	145.86206896551727	0.0	0.042053115	-0.036559965	1.013852385	0.21364	0.07629999999999999	1.55652	3288825.0	1776544968.172937	0.0	1.0	-1.0	-1.0	-1.0	-1.0	-1.0	-1.0	-1.0	-1.0	0.0	marker	peace	Peace	25	0418
-68452.245	-54873.405	-104693.04	-18530.864999999998	0.0	0.0	0.0	0.0	0.0	0.0	0.0	0.0	0.0	0.0	0.0	0.0	0.0	0.0	145.86206896551727	0.0	0.042053115	-0.036559965	1.013852385	0.21364	0.07629999999999999	1.55652	3288826.0	1776544968.172964	0.0	1.0	-1.0	-1.0	-1.0	-1.0	-1.0	-1.0	-1.0	-1.0	0.0	marker	peace	Peace	25	0418
-68518.8	-54873.54	-104737.36499999999	-18567.54	0.0	0.0	0.0	0.0	0.0	0.0	0.0	0.0	0.0	0.0	0.0	0.0	0.0	0.0	145.86206896551727	0.0	0.04858386	-0.042175185000000004	1.015805505	0.74774	-0.27468	2.12114	3288827.0	1776544968.173079	0.0	1.0	-1.0	-1.0	-1.0	-1.0	-1.0	-1.0	-1.0	-1.0	0.0	marker	peace	Peace	25	0418
-68501.7	-54871.11	-104718.23999999999	-18540.989999999998	0.0	0.0	0.0	0.0	0.0	0.0	0.0	0.0	0.0	0.0	0.0	0.0	0.0	0.0	145.86206896551727	0.0	0.04858386	-0.042175185000000004	1.015805505	0.74774	-0.27468	2.12114	3288828.0	1776544968.173091	0.0	1.0	-1.0	-1.0	-1.0	-1.0	-1.0	-1.0	-1.0	-1.0	0.0	marker	peace	Peace	25	0418
-68448.78	-54862.965	-104640.56999999999	-18462.96	0.0	0.0	0.0	0.0	0.0	0.0	0.0	0.0	0.0	0.0	0.0	0.0	0.0	0.0	145.86206896551727	0.0	0.04858386	-0.042175185000000004	1.015805505	0.74774	-0.27468	2.12114	3288829.0	1776544968.17313	0.0	1.0	-1.0	-1.0	-1.0	-1.0	-1.0	-1.0	-1.0	-1.0	0.0	marker	peace	Peace	25	0418
-68472.495	-54861.479999999996	-104660.055	-18509.67	0.0	0.0	0.0	0.0	0.0	0.0	0.0	0.0	0.0	0.0	0.0	0.0	0.0	0.0	145.86206896551727	0.0	0.04858386	-0.042175185000000004	1.015805505	0.74774	-0.27468	2.12114	3288830.0	1776544968.173139	0.0	1.0	-1.0	-1.0	-1.0	-1.0	-1.0	-1.0	-1.0	-1.0	0.0	marker	peace	Peace	25	0418
-68492.34	-54865.305	-104680.62	-18533.79	0.0	0.0	0.0	0.0	0.0	0.0	0.0	0.0	0.0	0.0	0.0	0.0	0.0	0.0	145.86206896551727	0.0	0.04858386	-0.042175185000000004	1.015805505	0.74774	-0.27468	2.12114	3288831.0	1776544968.173152	0.0	1.0	-1.0	-1.0	-1.0	-1.0	-1.0	-1.0	-1.0	-1.0	0.0	marker	peace	Peace	25	0418
-68451.39	-54872.055	-104652.495	-18507.555	0.0	0.0	0.0	0.0	0.0	0.0	0.0	0.0	0.0	0.0	0.0	0.0	0.0	0.0	145.86206896551727	0.0	0.04858386	-0.042175185000000004	1.015805505	0.74774	-0.27468	2.12114	3288832.0	1776544968.173164	0.0	1.0	-1.0	-1.0	-1.0	-1.0	-1.0	-1.0	-1.0	-1.0	0.0	marker	peace	Peace	25	0418
-68470.245	-54876.104999999996	-104689.26	-18551.204999999998	0.0	0.0	0.0	0.0	0.0	0.0	0.0	0.0	0.0	0.0	0.0	0.0	0.0	0.0	145.86206896551727	0.0	0.04858386	-0.042175185000000004	1.015805505	0.74774	-0.27468	2.12114	3288833.0	1776544968.173177	0.0	1.0	-1.0	-1.0	-1.0	-1.0	-1.0	-1.0	-1.0	-1.0	0.0	marker	peace	Peace	25	0418
-68492.205	-54872.595	-104707.8	-18550.62	0.0	0.0	0.0	0.0	0.0	0.0	0.0	0.0	0.0	0.0	0.0	0.0	0.0	0.0	145.86206896551727	0.0	0.04858386	-0.042175185000000004	1.015805505	0.74774	-0.27468	2.12114	3288834.0	1776544968.173186	0.0	1.0	-1.0	-1.0	-1.0	-1.0	-1.0	-1.0	-1.0	-1.0	0.0	marker	peace	Peace	25	0418
-68460.56999999999	-54867.869999999995	-104673.015	-18509.265	0.0	0.0	0.0	0.0	0.0	0.0	0.0	0.0	0.0	0.0	0.0	0.0	0.0	0.0	145.86206896551727	0.0	0.04858386	-0.042175185000000004	1.015805505	0.74774	-0.27468	2.12114	3288835.0	1776544968.173199	0.0	1.0	-1.0	-1.0	-1.0	-1.0	-1.0	-1.0	-1.0	-1.0	0.0	marker	peace	Peace	25	0418
-68512.77	-54887.265	-104697.72	-18550.125	0.0	0.0	0.0	0.0	0.0	0.0	0.0	0.0	0.0	0.0	0.0	0.0	0.0	0.0	145.86206896551727	0.0	0.04858386	-0.042175185000000004	1.015805505	0.74774	-0.27468	2.12114	3288836.0	1776544968.173207	0.0	1.0	-1.0	-1.0	-1.0	-1.0	-1.0	-1.0	-1.0	-1.0	0.0	marker	peace	Peace	25	0418
-68484.285	-54904.59	-104684.265	-18530.46	0.0	0.0	0.0	0.0	0.0	0.0	0.0	0.0	0.0	0.0	0.0	0.0	0.0	0.0	145.86206896551727	0.0	0.05017077	-0.047057985000000004	1.01879622	5.478339999999999	-0.59514	0.4578	3288837.0	1776544968.173219	0.0	1.0	-1.0	-1.0	-1.0	-1.0	-1.0	-1.0	-1.0	-1.0	0.0	marker	peace	Peace	25	0418
-68460.795	-54922.634999999995	-104694.75	-18531.405	0.0	0.0	0.0	0.0	0.0	0.0	0.0	0.0	0.0	0.0	0.0	0.0	0.0	0.0	145.86206896551727	0.0	0.05017077	-0.047057985000000004	1.01879622	5.478339999999999	-0.59514	0.4578	3288838.0	1776544968.173228	0.0	1.0	-1.0	-1.0	-1.0	-1.0	-1.0	-1.0	-1.0	-1.0	0.0	marker	peace	Peace	25	0418
-68469.705	-54936.945	-104675.22	-18519.12	0.0	0.0	0.0	0.0	0.0	0.0	0.0	0.0	0.0	0.0	0.0	0.0	0.0	0.0	145.86206896551727	0.0	0.05017077	-0.047057985000000004	1.01879622	5.478339999999999	-0.59514	0.4578	3288839.0	1776544968.173241	0.0	1.0	-1.0	-1.0	-1.0	-1.0	-1.0	-1.0	-1.0	-1.0	0.0	marker	peace	Peace	25	0418
-68476.05	-54939.915	-104669.415	-18522.855	0.0	0.0	0.0	0.0	0.0	0.0	0.0	0.0	0.0	0.0	0.0	0.0	0.0	0.0	145.86206896551727	0.0	0.05017077	-0.047057985000000004	1.01879622	5.478339999999999	-0.59514	0.4578	3288840.0	1776544968.17325	0.0	1.0	-1.0	-1.0	-1.0	-1.0	-1.0	-1.0	-1.0	-1.0	0.0	marker	peace	Peace	25	0418
-68472.855	-54933.03	-104671.845	-18502.515	0.0	0.0	0.0	0.0	0.0	0.0	0.0	0.0	0.0	0.0	0.0	0.0	0.0	0.0	145.86206896551727	0.0	0.05017077	-0.047057985000000004	1.01879622	5.478339999999999	-0.59514	0.4578	3288841.0	1776544968.173261	0.0	1.0	-1.0	-1.0	-1.0	-1.0	-1.0	-1.0	-1.0	-1.0	0.0	marker	peace	Peace	25	0418
-68469.525	-54923.715	-104671.62	-18492.12	0.0	0.0	0.0	0.0	0.0	0.0	0.0	0.0	0.0	0.0	0.0	0.0	0.0	0.0	145.86206896551727	0.0	0.05017077	-0.047057985000000004	1.01879622	5.478339999999999	-0.59514	0.4578	3288842.0	1776544968.17327	0.0	1.0	-1.0	-1.0	-1.0	-1.0	-1.0	-1.0	-1.0	-1.0	0.0	marker	peace	Peace	25	0418
-68460.345	-54923.04	-104675.67	-18500.04	0.0	0.0	0.0	0.0	0.0	0.0	0.0	0.0	0.0	0.0	0.0	0.0	0.0	0.0	145.86206896551727	0.0	0.05017077	-0.047057985000000004	1.01879622	5.478339999999999	-0.59514	0.4578	3288843.0	1776544968.173281	0.0	1.0	-1.0	-1.0	-1.0	-1.0	-1.0	-1.0	-1.0	-1.0	0.0	marker	peace	Peace	25	0418
-68476.905	-54935.145	-104713.965	-18555.93	0.0	0.0	0.0	0.0	0.0	0.0	0.0	0.0	0.0	0.0	0.0	0.0	0.0	0.0	145.86206896551727	0.0	0.05017077	-0.047057985000000004	1.01879622	5.478339999999999	-0.59514	0.4578	3288844.0	1776544968.17329	0.0	1.0	-1.0	-1.0	-1.0	-1.0	-1.0	-1.0	-1.0	-1.0	0.0	marker	peace	Peace	25	0418
-68497.29	-54940.185	-104732.055	-18577.575	0.0	0.0	0.0	0.0	0.0	0.0	0.0	0.0	0.0	0.0	0.0	0.0	0.0	0.0	145.86206896551727	0.0	0.05017077	-0.047057985000000004	1.01879622	5.478339999999999	-0.59514	0.4578	3288845.0	1776544968.173301	0.0	1.0	-1.0	-1.0	-1.0	-1.0	-1.0	-1.0	-1.0	-1.0	0.0	marker	peace	Peace	25	0418
-68444.81999999999	-54939.24	-104674.40999999999	-18524.295	0.0	0.0	0.0	0.0	0.0	0.0	0.0	0.0	0.0	0.0	0.0	0.0	0.0	0.0	145.86206896551727	0.0	0.05017077	-0.047057985000000004	1.01879622	5.478339999999999	-0.59514	0.4578	3288846.0	1776544968.173309	0.0	1.0	-1.0	-1.0	-1.0	-1.0	-1.0	-1.0	-1.0	-1.0	0.0	marker	peace	Peace	25	0418
-68439.465	-54947.924999999996	-104668.01999999999	-18495.27	0.0	0.0	0.0	0.0	0.0	0.0	0.0	0.0	0.0	0.0	0.0	0.0	0.0	0.0	145.86206896551727	0.0	0.057311865000000004	-0.049865595	1.011166845	6.24134	-0.03052	0.54936	3288847.0	1776544968.17332	0.0	1.0	-1.0	-1.0	-1.0	-1.0	-1.0	-1.0	-1.0	-1.0	0.0	marker	peace	Peace	25	0418
-68493.105	-54963.18	-104708.25	-18534.465	0.0	0.0	0.0	0.0	0.0	0.0	0.0	0.0	0.0	0.0	0.0	0.0	0.0	0.0	145.86206896551727	0.0	0.057311865000000004	-0.049865595	1.011166845	6.24134	-0.03052	0.54936	3288848.0	1776544968.173329	0.0	1.0	-1.0	-1.0	-1.0	-1.0	-1.0	-1.0	-1.0	-1.0	0.0	marker	peace	Peace	25	0418
-68510.925	-54972.09	-104686.83	-18529.695	0.0	0.0	0.0	0.0	0.0	0.0	0.0	0.0	0.0	0.0	0.0	0.0	0.0	0.0	145.86206896551727	0.0	0.057311865000000004	-0.049865595	1.011166845	6.24134	-0.03052	0.54936	3288849.0	1776544968.173339	0.0	1.0	-1.0	-1.0	-1.0	-1.0	-1.0	-1.0	-1.0	-1.0	0.0	marker	peace	Peace	25	0418
-68507.45999999999	-54970.695	-104696.55	-18544.41	0.0	0.0	0.0	0.0	0.0	0.0	0.0	0.0	0.0	0.0	0.0	0.0	0.0	0.0	145.86206896551727	0.0	0.057311865000000004	-0.049865595	1.011166845	6.24134	-0.03052	0.54936	3288850.0	1776544968.173347	0.0	1.0	-1.0	-1.0	-1.0	-1.0	-1.0	-1.0	-1.0	-1.0	0.0	marker	peace	Peace	25	0418
-68454.315	-54961.515	-104670.675	-18524.835	0.0	0.0	0.0	0.0	0.0	0.0	0.0	0.0	0.0	0.0	0.0	0.0	0.0	0.0	145.86206896551727	0.0	0.057311865000000004	-0.049865595	1.011166845	6.24134	-0.03052	0.54936	3288851.0	1776544968.173357	0.0	1.0	-1.0	-1.0	-1.0	-1.0	-1.0	-1.0	-1.0	-1.0	0.0	marker	peace	Peace	25	0418
-68396.04	-54956.07	-104623.47	-18465.48	0.0	0.0	0.0	0.0	0.0	0.0	0.0	0.0	0.0	0.0	0.0	0.0	0.0	0.0	145.86206896551727	0.0	0.057311865000000004	-0.049865595	1.011166845	6.24134	-0.03052	0.54936	3288852.0	1776544968.173366	0.0	1.0	-1.0	-1.0	-1.0	-1.0	-1.0	-1.0	-1.0	-1.0	0.0	marker	peace	Peace	25	0418
-68452.02	-54965.43	-104674.68	-18499.32	0.0	0.0	0.0	0.0	0.0	0.0	0.0	0.0	0.0	0.0	0.0	0.0	0.0	0.0	145.86206896551727	0.0	0.057311865000000004	-0.049865595	1.011166845	6.24134	-0.03052	0.54936	3288853.0	1776544968.173376	0.0	1.0	-1.0	-1.0	-1.0	-1.0	-1.0	-1.0	-1.0	-1.0	0.0	marker	peace	Peace	25	0418
-68478.885	-54968.174999999996	-104706.18	-18540.18	0.0	0.0	0.0	0.0	0.0	0.0	0.0	0.0	0.0	0.0	0.0	0.0	0.0	0.0	145.86206896551727	0.0	0.057311865000000004	-0.049865595	1.011166845	6.24134	-0.03052	0.54936	3288854.0	1776544968.173385	0.0	1.0	-1.0	-1.0	-1.0	-1.0	-1.0	-1.0	-1.0	-1.0	0.0	marker	peace	Peace	25	0418
-68451.165	-54962.865	-104671.665	-18513.989999999998	0.0	0.0	0.0	0.0	0.0	0.0	0.0	0.0	0.0	0.0	0.0	0.0	0.0	0.0	145.86206896551727	0.0	0.057311865000000004	-0.049865595	1.011166845	6.24134	-0.03052	0.54936	3288855.0	1776544968.173396	0.0	1.0	-1.0	-1.0	-1.0	-1.0	-1.0	-1.0	-1.0	-1.0	0.0	marker	peace	Peace	25	0418
-68452.245	-54962.729999999996	-104635.89	-18458.954999999998	0.0	0.0	0.0	0.0	0.0	0.0	0.0	0.0	0.0	0.0	0.0	0.0	0.0	0.0	145.86206896551727	0.0	0.057311865000000004	-0.049865595	1.011166845	6.24134	-0.03052	0.54936	3288856.0	1776544968.173405	0.0	1.0	-1.0	-1.0	-1.0	-1.0	-1.0	-1.0	-1.0	-1.0	0.0	marker	peace	Peace	25	0418
-68457.465	-54965.564999999995	-104679.045	-18511.2	0.0	0.0	0.0	0.0	0.0	0.0	0.0	0.0	0.0	0.0	0.0	0.0	0.0	0.0	145.86206896551727	0.0	0.06555159	-0.04687488	1.003842645	3.8760399999999997	1.69386	0.03052	3288857.0	1776544968.173415	0.0	1.0	-1.0	-1.0	-1.0	-1.0	-1.0	-1.0	-1.0	-1.0	0.0	marker	peace	Peace	25	0418
-68456.385	-54969.21	-104684.805	-18529.739999999998	0.0	0.0	0.0	0.0	0.0	0.0	0.0	0.0	0.0	0.0	0.0	0.0	0.0	0.0	145.86206896551727	0.0	0.06555159	-0.04687488	1.003842645	3.8760399999999997	1.69386	0.03052	3288858.0	1776544968.173423	0.0	1.0	-1.0	-1.0	-1.0	-1.0	-1.0	-1.0	-1.0	-1.0	0.0	marker	peace	Peace	25	0418
-68542.83	-54977.445	-104730.84	-18565.469999999998	0.0	0.0	0.0	0.0	0.0	0.0	0.0	0.0	0.0	0.0	0.0	0.0	0.0	0.0	145.86206896551727	0.0	0.06555159	-0.04687488	1.003842645	3.8760399999999997	1.69386	0.03052	3288859.0	1776544968.173434	0.0	1.0	-1.0	-1.0	-1.0	-1.0	-1.0	-1.0	-1.0	-1.0	0.0	marker	peace	Peace	25	0418
-68531.48999999999	-54978.84	-104718.87	-18555.524999999998	0.0	0.0	0.0	0.0	0.0	0.0	0.0	0.0	0.0	0.0	0.0	0.0	0.0	0.0	145.86206896551727	0.0	0.06555159	-0.04687488	1.003842645	3.8760399999999997	1.69386	0.03052	3288860.0	1776544968.173442	0.0	1.0	-1.0	-1.0	-1.0	-1.0	-1.0	-1.0	-1.0	-1.0	0.0	marker	peace	Peace	25	0418
-68500.98	-54987.39	-104710.76999999999	-18554.04	0.0	0.0	0.0	0.0	0.0	0.0	0.0	0.0	0.0	0.0	0.0	0.0	0.0	0.0	145.86206896551727	0.0	0.06555159	-0.04687488	1.003842645	3.8760399999999997	1.69386	0.03052	3288861.0	1776544968.173453	0.0	1.0	-1.0	-1.0	-1.0	-1.0	-1.0	-1.0	-1.0	-1.0	0.0	marker	peace	Peace	25	0418
-68510.83499999999	-54995.265	-104719.05	-18580.274999999998	0.0	0.0	0.0	0.0	0.0	0.0	0.0	0.0	0.0	0.0	0.0	0.0	0.0	0.0	146.13793103448276	0.0	0.06555159	-0.04687488	1.003842645	3.8760399999999997	1.69386	0.03052	3288862.0	1776544968.173462	0.0	1.0	-1.0	-1.0	-1.0	-1.0	-1.0	-1.0	-1.0	-1.0	0.0	marker	peace	Peace	25	0418
-68469.705	-54992.924999999996	-104675.805	-18531.54	0.0	0.0	0.0	0.0	0.0	0.0	0.0	0.0	0.0	0.0	0.0	0.0	0.0	0.0	146.13793103448276	0.0	0.06555159	-0.04687488	1.003842645	3.8760399999999997	1.69386	0.03052	3288863.0	1776544968.173472	0.0	1.0	-1.0	-1.0	-1.0	-1.0	-1.0	-1.0	-1.0	-1.0	0.0	marker	peace	Peace	25	0418
-68437.08	-54997.695	-104653.485	-18492.03	0.0	0.0	0.0	0.0	0.0	0.0	0.0	0.0	0.0	0.0	0.0	0.0	0.0	0.0	146.13793103448276	0.0	0.06555159	-0.04687488	1.003842645	3.8760399999999997	1.69386	0.03052	3288864.0	1776544968.173481	0.0	1.0	-1.0	-1.0	-1.0	-1.0	-1.0	-1.0	-1.0	-1.0	0.0	marker	peace	Peace	25	0418
-68439.555	-54998.865	-104654.51999999999	-18502.649999999998	0.0	0.0	0.0	0.0	0.0	0.0	0.0	0.0	0.0	0.0	0.0	0.0	0.0	0.0	146.13793103448276	0.0	0.06555159	-0.04687488	1.003842645	3.8760399999999997	1.69386	0.03052	3288865.0	1776544968.173493	0.0	1.0	-1.0	-1.0	-1.0	-1.0	-1.0	-1.0	-1.0	-1.0	0.0	marker	peace	Peace	25	0418
-68402.565	-54997.65	-104632.605	-18487.8	0.0	0.0	0.0	0.0	0.0	0.0	0.0	0.0	0.0	0.0	0.0	0.0	0.0	0.0	146.13793103448276	0.0	0.06555159	-0.04687488	1.003842645	3.8760399999999997	1.69386	0.03052	3288866.0	1776544968.173502	0.0	1.0	-1.0	-1.0	-1.0	-1.0	-1.0	-1.0	-1.0	-1.0	0.0	marker	peace	Peace	25	0418
-68410.125	-54992.97	-104646.51	-18470.475	0.0	0.0	0.0	0.0	0.0	0.0	0.0	0.0	0.0	0.0	0.0	0.0	0.0	0.0	146.13793103448276	0.0	0.060241545	-0.041259660000000004	0.9987157050000001	2.4415999999999998	3.2809	-0.16785999999999998	3288867.0	1776544968.173513	0.0	1.0	-1.0	-1.0	-1.0	-1.0	-1.0	-1.0	-1.0	-1.0	0.0	marker	peace	Peace	25	0418
-68522.265	-54991.53	-104728.095	-18531.63	0.0	0.0	0.0	0.0	0.0	0.0	0.0	0.0	0.0	0.0	0.0	0.0	0.0	0.0	146.13793103448276	0.0	0.060241545	-0.041259660000000004	0.9987157050000001	2.4415999999999998	3.2809	-0.16785999999999998	3288868.0	1776544968.173521	0.0	1.0	-1.0	-1.0	-1.0	-1.0	-1.0	-1.0	-1.0	-1.0	0.0	marker	peace	Peace	25	0418
-68534.955	-54989.145	-104731.245	-18544.905	0.0	0.0	0.0	0.0	0.0	0.0	0.0	0.0	0.0	0.0	0.0	0.0	0.0	0.0	146.13793103448276	0.0	0.060241545	-0.041259660000000004	0.9987157050000001	2.4415999999999998	3.2809	-0.16785999999999998	3288869.0	1776544968.173531	0.0	1.0	-1.0	-1.0	-1.0	-1.0	-1.0	-1.0	-1.0	-1.0	0.0	marker	peace	Peace	25	0418
-68496.255	-54986.22	-104714.235	-18548.505	0.0	0.0	0.0	0.0	0.0	0.0	0.0	0.0	0.0	0.0	0.0	0.0	0.0	0.0	146.13793103448276	0.0	0.060241545	-0.041259660000000004	0.9987157050000001	2.4415999999999998	3.2809	-0.16785999999999998	3288870.0	1776544968.17354	0.0	1.0	-1.0	-1.0	-1.0	-1.0	-1.0	-1.0	-1.0	-1.0	0.0	marker	peace	Peace	25	0418
-68507.91	-54997.47	-104726.295	-18560.655	0.0	0.0	0.0	0.0	0.0	0.0	0.0	0.0	0.0	0.0	0.0	0.0	0.0	0.0	146.13793103448276	0.0	0.060241545	-0.041259660000000004	0.9987157050000001	2.4415999999999998	3.2809	-0.16785999999999998	3288871.0	1776544968.173551	0.0	1.0	-1.0	-1.0	-1.0	-1.0	-1.0	-1.0	-1.0	-1.0	0.0	marker	peace	Peace	25	0418
-68515.965	-55006.47	-104729.175	-18566.46	0.0	0.0	0.0	0.0	0.0	0.0	0.0	0.0	0.0	0.0	0.0	0.0	0.0	0.0	146.13793103448276	0.0	0.060241545	-0.041259660000000004	0.9987157050000001	2.4415999999999998	3.2809	-0.16785999999999998	3288872.0	1776544968.173559	0.0	1.0	-1.0	-1.0	-1.0	-1.0	-1.0	-1.0	-1.0	-1.0	0.0	marker	peace	Peace	25	0418
-68459.08499999999	-54963.765	-104687.73	-18548.594999999998	0.0	0.0	0.0	0.0	0.0	0.0	0.0	0.0	0.0	0.0	0.0	0.0	0.0	0.0	146.13793103448276	0.0	0.060241545	-0.041259660000000004	0.9987157050000001	2.4415999999999998	3.2809	-0.16785999999999998	3288873.0	1776544968.175722	0.0	1.0	-1.0	-1.0	-1.0	-1.0	-1.0	-1.0	-1.0	-1.0	0.0	marker	peace	Peace	25	0418
-68463.58499999999	-54876.555	-104680.70999999999	-18529.245	0.0	0.0	0.0	0.0	0.0	0.0	0.0	0.0	0.0	0.0	0.0	0.0	0.0	0.0	146.13793103448276	0.0	0.060241545	-0.041259660000000004	0.9987157050000001	2.4415999999999998	3.2809	-0.16785999999999998	3288874.0	1776544968.175742	0.0	1.0	-1.0	-1.0	-1.0	-1.0	-1.0	-1.0	-1.0	-1.0	0.0	marker	peace	Peace	25	0418
-68483.565	-54868.365	-104704.875	-18535.14	0.0	0.0	0.0	0.0	0.0	0.0	0.0	0.0	0.0	0.0	0.0	0.0	0.0	0.0	146.13793103448276	0.0	0.060241545	-0.041259660000000004	0.9987157050000001	2.4415999999999998	3.2809	-0.16785999999999998	3288875.0	1776544968.179578	0.0	1.0	-1.0	-1.0	-1.0	-1.0	-1.0	-1.0	-1.0	-1.0	0.0	marker	peace	Peace	25	0418
-68482.53	-54867.24	-104708.43	-18538.559999999998	0.0	0.0	0.0	0.0	0.0	0.0	0.0	0.0	0.0	0.0	0.0	0.0	0.0	0.0	146.13793103448276	0.0	0.060241545	-0.041259660000000004	0.9987157050000001	2.4415999999999998	3.2809	-0.16785999999999998	3288876.0	1776544968.179596	0.0	1.0	-1.0	-1.0	-1.0	-1.0	-1.0	-1.0	-1.0	-1.0	0.0	marker	peace	Peace	25	0418
-68471.235	-54861.975	-104701.995	-18532.17	0.0	0.0	0.0	0.0	0.0	0.0	0.0	0.0	0.0	0.0	0.0	0.0	0.0	0.0	146.13793103448276	0.0	0.04858386	-0.04174794	1.009702005	2.33478	3.14356	-0.19838	3288877.0	1776544968.183733	0.0	1.0	-1.0	-1.0	-1.0	-1.0	-1.0	-1.0	-1.0	-1.0	0.0	marker	peace	Peace	25	0418
-68494.31999999999	-54861.615	-104703.39	-18531.27	0.0	0.0	0.0	0.0	0.0	0.0	0.0	0.0	0.0	0.0	0.0	0.0	0.0	0.0	146.13793103448276	0.0	0.04858386	-0.04174794	1.009702005	2.33478	3.14356	-0.19838	3288878.0	1776544968.183764	0.0	1.0	-1.0	-1.0	-1.0	-1.0	-1.0	-1.0	-1.0	-1.0	0.0	marker	peace	Peace	25	0418
-68489.28	-54871.965	-104678.28	-18518.76	0.0	0.0	0.0	0.0	0.0	0.0	0.0	0.0	0.0	0.0	0.0	0.0	0.0	0.0	146.13793103448276	0.0	0.04858386	-0.04174794	1.009702005	2.33478	3.14356	-0.19838	3288879.0	1776544968.189265	0.0	1.0	-1.0	-1.0	-1.0	-1.0	-1.0	-1.0	-1.0	-1.0	0.0	marker	peace	Peace	25	0418
-68482.215	-54880.829999999994	-104650.065	-18504.495	0.0	0.0	0.0	0.0	0.0	0.0	0.0	0.0	0.0	0.0	0.0	0.0	0.0	0.0	146.13793103448276	0.0	0.04858386	-0.04174794	1.009702005	2.33478	3.14356	-0.19838	3288880.0	1776544968.189283	0.0	1.0	-1.0	-1.0	-1.0	-1.0	-1.0	-1.0	-1.0	-1.0	0.0	marker	peace	Peace	25	0418
-68481.495	-54889.2	-104651.90999999999	-18505.079999999998	0.0	0.0	0.0	0.0	0.0	0.0	0.0	0.0	0.0	0.0	0.0	0.0	0.0	0.0	146.13793103448276	0.0	0.04858386	-0.04174794	1.009702005	2.33478	3.14356	-0.19838	3288881.0	1776544968.192528	0.0	1.0	-1.0	-1.0	-1.0	-1.0	-1.0	-1.0	-1.0	-1.0	0.0	marker	peace	Peace	25	0418
-68465.11499999999	-54894.555	-104682.015	-18529.469999999998	0.0	0.0	0.0	0.0	0.0	0.0	0.0	0.0	0.0	0.0	0.0	0.0	0.0	0.0	146.13793103448276	0.0	0.04858386	-0.04174794	1.009702005	2.33478	3.14356	-0.19838	3288882.0	1776544968.192542	0.0	1.0	-1.0	-1.0	-1.0	-1.0	-1.0	-1.0	-1.0	-1.0	0.0	marker	peace	Peace	25	0418
-68461.785	-54893.25	-104662.03499999999	-18514.98	0.0	0.0	0.0	0.0	0.0	0.0	0.0	0.0	0.0	0.0	0.0	0.0	0.0	0.0	146.13793103448276	0.0	0.04858386	-0.04174794	1.009702005	2.33478	3.14356	-0.19838	3288883.0	1776544968.197611	0.0	1.0	-1.0	-1.0	-1.0	-1.0	-1.0	-1.0	-1.0	-1.0	0.0	marker	peace	Peace	25	0418
-68490.72	-54896.445	-104699.655	-18540.989999999998	0.0	0.0	0.0	0.0	0.0	0.0	0.0	0.0	0.0	0.0	0.0	0.0	0.0	0.0	146.13793103448276	0.0	0.04858386	-0.04174794	1.009702005	2.33478	3.14356	-0.19838	3288884.0	1776544968.197645	0.0	1.0	-1.0	-1.0	-1.0	-1.0	-1.0	-1.0	-1.0	-1.0	0.0	marker	peace	Peace	25	0418
-68476.815	-54896.805	-104721.435	-18550.8	0.0	0.0	0.0	0.0	0.0	0.0	0.0	0.0	0.0	0.0	0.0	0.0	0.0	0.0	146.13793103448276	0.0	0.04858386	-0.04174794	1.009702005	2.33478	3.14356	-0.19838	3288885.0	1776544968.297566	0.0	1.0	-1.0	-1.0	-1.0	-1.0	-1.0	-1.0	-1.0	-1.0	0.0	marker	peace	Peace	25	0418
-68449.905	-54895.725	-104746.14	-18545.399999999998	0.0	0.0	0.0	0.0	0.0	0.0	0.0	0.0	0.0	0.0	0.0	0.0	0.0	0.0	146.13793103448276	0.0	0.04858386	-0.04174794	1.009702005	2.33478	3.14356	-0.19838	3288886.0	1776544968.297589	0.0	1.0	-1.0	-1.0	-1.0	-1.0	-1.0	-1.0	-1.0	-1.0	0.0	marker	peace	Peace	25	0418
-68478.39	-54896.895	-104728.095	-18538.829999999998	0.0	0.0	0.0	0.0	0.0	0.0	0.0	0.0	0.0	0.0	0.0	0.0	0.0	0.0	146.13793103448276	0.0	0.042175185000000004	-0.04345692	1.01867415	5.55464	2.62472	-0.4578	3288887.0	1776544968.297652	0.0	1.0	-1.0	-1.0	-1.0	-1.0	-1.0	-1.0	-1.0	-1.0	0.0	marker	peace	Peace	25	0418
-68455.8	-54894.825	-104674.14	-18505.71	0.0	0.0	0.0	0.0	0.0	0.0	0.0	0.0	0.0	0.0	0.0	0.0	0.0	0.0	146.13793103448276	0.0	0.042175185000000004	-0.04345692	1.01867415	5.55464	2.62472	-0.4578	3288888.0	1776544968.297662	0.0	1.0	-1.0	-1.0	-1.0	-1.0	-1.0	-1.0	-1.0	-1.0	0.0	marker	peace	Peace	25	0418
-68470.155	-54897.93	-104665.905	-18510.39	0.0	0.0	0.0	0.0	0.0	0.0	0.0	0.0	0.0	0.0	0.0	0.0	0.0	0.0	146.13793103448276	0.0	0.042175185000000004	-0.04345692	1.01867415	5.55464	2.62472	-0.4578	3288889.0	1776544968.2977	0.0	1.0	-1.0	-1.0	-1.0	-1.0	-1.0	-1.0	-1.0	-1.0	0.0	marker	peace	Peace	25	0418
-68513.13	-54901.35	-104689.53	-18529.515	0.0	0.0	0.0	0.0	0.0	0.0	0.0	0.0	0.0	0.0	0.0	0.0	0.0	0.0	146.13793103448276	0.0	0.042175185000000004	-0.04345692	1.01867415	5.55464	2.62472	-0.4578	3288890.0	1776544968.297707	0.0	1.0	-1.0	-1.0	-1.0	-1.0	-1.0	-1.0	-1.0	-1.0	0.0	marker	peace	Peace	25	0418
-68498.64	-54895.365	-104689.575	-18520.965	0.0	0.0	0.0	0.0	0.0	0.0	0.0	0.0	0.0	0.0	0.0	0.0	0.0	0.0	146.13793103448276	0.0	0.042175185000000004	-0.04345692	1.01867415	5.55464	2.62472	-0.4578	3288891.0	1776544968.297721	0.0	1.0	-1.0	-1.0	-1.0	-1.0	-1.0	-1.0	-1.0	-1.0	0.0	marker	peace	Peace	25	0418
-68476.31999999999	-54888.525	-104698.75499999999	-18534.915	0.0	0.0	0.0	0.0	0.0	0.0	0.0	0.0	0.0	0.0	0.0	0.0	0.0	0.0	146.13793103448276	0.0	0.042175185000000004	-0.04345692	1.01867415	5.55464	2.62472	-0.4578	3288892.0	1776544968.297728	0.0	1.0	-1.0	-1.0	-1.0	-1.0	-1.0	-1.0	-1.0	-1.0	0.0	marker	peace	Peace	25	0418
-68455.305	-54880.965	-104650.69499999999	-18532.575	0.0	0.0	0.0	0.0	0.0	0.0	0.0	0.0	0.0	0.0	0.0	0.0	0.0	0.0	146.13793103448276	0.0	0.042175185000000004	-0.04345692	1.01867415	5.55464	2.62472	-0.4578	3288893.0	1776544968.297741	0.0	1.0	-1.0	-1.0	-1.0	-1.0	-1.0	-1.0	-1.0	-1.0	0.0	marker	peace	Peace	25	0418
-68493.645	-54877.454999999994	-104706.315	-18537.84	0.0	0.0	0.0	0.0	0.0	0.0	0.0	0.0	0.0	0.0	0.0	0.0	0.0	0.0	146.13793103448276	0.0	0.042175185000000004	-0.04345692	1.01867415	5.55464	2.62472	-0.4578	3288894.0	1776544968.297749	0.0	1.0	-1.0	-1.0	-1.0	-1.0	-1.0	-1.0	-1.0	-1.0	0.0	marker	peace	Peace	25	0418
-68511.285	-54884.97	-104738.67	-18542.295	0.0	0.0	0.0	0.0	0.0	0.0	0.0	0.0	0.0	0.0	0.0	0.0	0.0	0.0	146.13793103448276	0.0	0.042175185000000004	-0.04345692	1.01867415	5.55464	2.62472	-0.4578	3288895.0	1776544968.297761	0.0	1.0	-1.0	-1.0	-1.0	-1.0	-1.0	-1.0	-1.0	-1.0	0.0	marker	peace	Peace	25	0418
-68483.88	-54898.244999999995	-104685.39	-18513.675	0.0	0.0	0.0	0.0	0.0	0.0	0.0	0.0	0.0	0.0	0.0	0.0	0.0	0.0	146.13793103448276	0.0	0.042175185000000004	-0.04345692	1.01867415	5.55464	2.62472	-0.4578	3288896.0	1776544968.297769	0.0	1.0	-1.0	-1.0	-1.0	-1.0	-1.0	-1.0	-1.0	-1.0	0.0	marker	peace	Peace	25	0418
-68427.98999999999	-54906.435	-104623.965	-18462.329999999998	0.0	0.0	0.0	0.0	0.0	0.0	0.0	0.0	0.0	0.0	0.0	0.0	0.0	0.0	146.13793103448276	0.0	0.044494515	-0.031799235	1.021786935	4.02864	1.11398	0.85456	3288897.0	1776544968.297781	0.0	1.0	-1.0	-1.0	-1.0	-1.0	-1.0	-1.0	-1.0	-1.0	0.0	marker	peace	Peace	25	0418
-68422.77	-54898.515	-104632.515	-18471.555	0.0	0.0	0.0	0.0	0.0	0.0	0.0	0.0	0.0	0.0	0.0	0.0	0.0	0.0	146.13793103448276	0.0	0.044494515	-0.031799235	1.021786935	4.02864	1.11398	0.85456	3288898.0	1776544968.297788	0.0	1.0	-1.0	-1.0	-1.0	-1.0	-1.0	-1.0	-1.0	-1.0	0.0	marker	peace	Peace	25	0418
-68475.735	-54894.42	-104699.655	-18523.98	0.0	0.0	0.0	0.0	0.0	0.0	0.0	0.0	0.0	0.0	0.0	0.0	0.0	0.0	146.13793103448276	0.0	0.044494515	-0.031799235	1.021786935	4.02864	1.11398	0.85456	3288899.0	1776544968.297798	0.0	1.0	-1.0	-1.0	-1.0	-1.0	-1.0	-1.0	-1.0	-1.0	0.0	marker	peace	Peace	25	0418
-68505.705	-54890.235	-104716.215	-18526.905	0.0	0.0	0.0	0.0	0.0	0.0	0.0	0.0	0.0	0.0	0.0	0.0	0.0	0.0	146.13793103448276	0.0	0.044494515	-0.031799235	1.021786935	4.02864	1.11398	0.85456	3288900.0	1776544968.297806	0.0	1.0	-1.0	-1.0	-1.0	-1.0	-1.0	-1.0	-1.0	-1.0	0.0	marker	peace	Peace	25	0418
-68466.015	-54877.049999999996	-104673.95999999999	-18494.64	0.0	0.0	0.0	0.0	0.0	0.0	0.0	0.0	0.0	0.0	0.0	0.0	0.0	0.0	146.13793103448276	0.0	0.044494515	-0.031799235	1.021786935	4.02864	1.11398	0.85456	3288901.0	1776544968.29782	0.0	1.0	-1.0	-1.0	-1.0	-1.0	-1.0	-1.0	-1.0	-1.0	0.0	marker	peace	Peace	25	0418
-68520.33	-54871.829999999994	-104743.935	-18587.969999999998	0.0	0.0	0.0	0.0	0.0	0.0	0.0	0.0	0.0	0.0	0.0	0.0	0.0	0.0	146.13793103448276	0.0	0.044494515	-0.031799235	1.021786935	4.02864	1.11398	0.85456	3288902.0	1776544968.297827	0.0	1.0	-1.0	-1.0	-1.0	-1.0	-1.0	-1.0	-1.0	-1.0	0.0	marker	peace	Peace	25	0418
-68515.69499999999	-54868.185	-104734.665	-18590.67	0.0	0.0	0.0	0.0	0.0	0.0	0.0	0.0	0.0	0.0	0.0	0.0	0.0	0.0	146.13793103448276	0.0	0.044494515	-0.031799235	1.021786935	4.02864	1.11398	0.85456	3288903.0	1776544968.297841	0.0	1.0	-1.0	-1.0	-1.0	-1.0	-1.0	-1.0	-1.0	-1.0	0.0	marker	peace	Peace	25	0418
-68488.47	-54869.354999999996	-104711.44499999999	-18558.225	0.0	0.0	0.0	0.0	0.0	0.0	0.0	0.0	0.0	0.0	0.0	0.0	0.0	0.0	146.13793103448276	0.0	0.044494515	-0.031799235	1.021786935	4.02864	1.11398	0.85456	3288904.0	1776544968.297848	0.0	1.0	-1.0	-1.0	-1.0	-1.0	-1.0	-1.0	-1.0	-1.0	0.0	marker	peace	Peace	25	0418
-68470.155	-54880.38	-104699.06999999999	-18541.125	0.0	0.0	0.0	0.0	0.0	0.0	0.0	0.0	0.0	0.0	0.0	0.0	0.0	0.0	146.13793103448276	0.0	0.044494515	-0.031799235	1.021786935	4.02864	1.11398	0.85456	3288905.0	1776544968.297864	0.0	1.0	-1.0	-1.0	-1.0	-1.0	-1.0	-1.0	-1.0	-1.0	0.0	marker	peace	Peace	25	0418
-68429.655	-54886.68	-104635.125	-18474.21	0.0	0.0	0.0	0.0	0.0	0.0	0.0	0.0	0.0	0.0	0.0	0.0	0.0	0.0	146.13793103448276	0.0	0.044494515	-0.031799235	1.021786935	4.02864	1.11398	0.85456	3288906.0	1776544968.297871	0.0	1.0	-1.0	-1.0	-1.0	-1.0	-1.0	-1.0	-1.0	-1.0	0.0	marker	peace	Peace	25	0418
-68482.53	-54883.979999999996	-104665.095	-18499.95	0.0	0.0	0.0	0.0	0.0	0.0	0.0	0.0	0.0	0.0	0.0	0.0	0.0	0.0	146.13793103448276	0.0	0.04992663	-0.027160575	1.01696517	-1.32762	1.6022999999999998	1.84646	3288907.0	1776544968.297887	0.0	1.0	-1.0	-1.0	-1.0	-1.0	-1.0	-1.0	-1.0	-1.0	0.0	marker	peace	Peace	25	0418
-68483.11499999999	-54879.345	-104694.795	-18536.355	0.0	0.0	0.0	0.0	0.0	0.0	0.0	0.0	0.0	0.0	0.0	0.0	0.0	0.0	146.13793103448276	0.0	0.04992663	-0.027160575	1.01696517	-1.32762	1.6022999999999998	1.84646	3288908.0	1776544968.297895	0.0	1.0	-1.0	-1.0	-1.0	-1.0	-1.0	-1.0	-1.0	-1.0	0.0	marker	peace	Peace	25	0418
-68505.3	-54861.119999999995	-104723.64	-18562.005	0.0	0.0	0.0	0.0	0.0	0.0	0.0	0.0	0.0	0.0	0.0	0.0	0.0	0.0	146.13793103448276	0.0	0.04992663	-0.027160575	1.01696517	-1.32762	1.6022999999999998	1.84646	3288909.0	1776544968.297906	0.0	1.0	-1.0	-1.0	-1.0	-1.0	-1.0	-1.0	-1.0	-1.0	0.0	marker	peace	Peace	25	0418
-68528.295	-54776.924999999996	-104734.70999999999	-18571.364999999998	0.0	0.0	0.0	0.0	0.0	0.0	0.0	0.0	0.0	0.0	0.0	0.0	0.0	0.0	146.13793103448276	0.0	0.04992663	-0.027160575	1.01696517	-1.32762	1.6022999999999998	1.84646	3288910.0	1776544968.297913	0.0	1.0	-1.0	-1.0	-1.0	-1.0	-1.0	-1.0	-1.0	-1.0	0.0	marker	peace	Peace	25	0418
-68521.275	-54745.02	-104731.11	-18566.594999999998	0.0	0.0	0.0	0.0	0.0	0.0	0.0	0.0	0.0	0.0	0.0	0.0	0.0	0.0	146.13793103448276	0.0	0.04992663	-0.027160575	1.01696517	-1.32762	1.6022999999999998	1.84646	3288911.0	1776544968.297924	0.0	1.0	-1.0	-1.0	-1.0	-1.0	-1.0	-1.0	-1.0	-1.0	0.0	marker	peace	Peace	25	0418
-68518.44	-54740.564999999995	-104727.42	-18556.649999999998	0.0	0.0	0.0	0.0	0.0	0.0	0.0	0.0	0.0	0.0	0.0	0.0	0.0	0.0	146.13793103448276	0.0	0.04992663	-0.027160575	1.01696517	-1.32762	1.6022999999999998	1.84646	3288912.0	1776544968.297932	0.0	1.0	-1.0	-1.0	-1.0	-1.0	-1.0	-1.0	-1.0	-1.0	0.0	marker	peace	Peace	25	0418
-68487.795	-54747.045	-104707.305	-18539.415	0.0	0.0	0.0	0.0	0.0	0.0	0.0	0.0	0.0	0.0	0.0	0.0	0.0	0.0	146.13793103448276	0.0	0.04992663	-0.027160575	1.01696517	-1.32762	1.6022999999999998	1.84646	3288913.0	1776544968.297941	0.0	1.0	-1.0	-1.0	-1.0	-1.0	-1.0	-1.0	-1.0	-1.0	0.0	marker	peace	Peace	25	0418
-68470.785	-54759.015	-104688.54	-18520.425	0.0	0.0	0.0	0.0	0.0	0.0	0.0	0.0	0.0	0.0	0.0	0.0	0.0	0.0	146.13793103448276	0.0	0.04992663	-0.027160575	1.01696517	-1.32762	1.6022999999999998	1.84646	3288914.0	1776544968.297949	0.0	1.0	-1.0	-1.0	-1.0	-1.0	-1.0	-1.0	-1.0	-1.0	0.0	marker	peace	Peace	25	0418
-68482.44	-54752.31	-104689.665	-18516.329999999998	0.0	0.0	0.0	0.0	0.0	0.0	0.0	0.0	0.0	0.0	0.0	0.0	0.0	0.0	146.13793103448276	0.0	0.04992663	-0.027160575	1.01696517	-1.32762	1.6022999999999998	1.84646	3288915.0	1776544968.297959	0.0	1.0	-1.0	-1.0	-1.0	-1.0	-1.0	-1.0	-1.0	-1.0	0.0	marker	peace	Peace	25	0418
-68501.88	-54739.619999999995	-104723.14499999999	-18553.995	0.0	0.0	0.0	0.0	0.0	0.0	0.0	0.0	0.0	0.0	0.0	0.0	0.0	0.0	146.13793103448276	0.0	0.04992663	-0.027160575	1.01696517	-1.32762	1.6022999999999998	1.84646	3288916.0	1776544968.297966	0.0	1.0	-1.0	-1.0	-1.0	-1.0	-1.0	-1.0	-1.0	-1.0	0.0	marker	peace	Peace	25	0418
-68516.415	-54727.38	-104730.885	-18561.105	0.0	0.0	0.0	0.0	0.0	0.0	0.0	0.0	0.0	0.0	0.0	0.0	0.0	0.0	146.13793103448276	0.0	0.05187975	-0.039733785	1.013608245	0.73248	2.31952	0.62566	3288917.0	1776544968.297977	0.0	1.0	-1.0	-1.0	-1.0	-1.0	-1.0	-1.0	-1.0	-1.0	0.0	marker	peace	Peace	25	0418
-68514.75	-54708.119999999995	-104732.81999999999	-18570.51	0.0	0.0	0.0	0.0	0.0	0.0	0.0	0.0	0.0	0.0	0.0	0.0	0.0	0.0	146.13793103448276	0.0	0.05187975	-0.039733785	1.013608245	0.73248	2.31952	0.62566	3288918.0	1776544968.297985	0.0	1.0	-1.0	-1.0	-1.0	-1.0	-1.0	-1.0	-1.0	-1.0	0.0	marker	peace	Peace	25	0418
-68490.9	-54642.78	-104719.40999999999	-18575.505	0.0	0.0	0.0	0.0	0.0	0.0	0.0	0.0	0.0	0.0	0.0	0.0	0.0	0.0	146.13793103448276	0.0	0.05187975	-0.039733785	1.013608245	0.73248	2.31952	0.62566	3288919.0	1776544968.297994	0.0	1.0	-1.0	-1.0	-1.0	-1.0	-1.0	-1.0	-1.0	-1.0	0.0	marker	peace	Peace	25	0418
-68467.905	-54615.645	-104664.23999999999	-18523.44	0.0	0.0	0.0	0.0	0.0	0.0	0.0	0.0	0.0	0.0	0.0	0.0	0.0	0.0	146.13793103448276	0.0	0.05187975	-0.039733785	1.013608245	0.73248	2.31952	0.62566	3288920.0	1776544968.298001	0.0	1.0	-1.0	-1.0	-1.0	-1.0	-1.0	-1.0	-1.0	-1.0	0.0	marker	peace	Peace	25	0418
-68470.605	-54621.314999999995	-104629.00499999999	-18495.945	0.0	0.0	0.0	0.0	0.0	0.0	0.0	0.0	0.0	0.0	0.0	0.0	0.0	0.0	146.13793103448276	0.0	0.05187975	-0.039733785	1.013608245	0.73248	2.31952	0.62566	3288921.0	1776544968.298013	0.0	1.0	-1.0	-1.0	-1.0	-1.0	-1.0	-1.0	-1.0	-1.0	0.0	marker	peace	Peace	25	0418
-68506.2	-54634.005	-104695.515	-18551.61	0.0	0.0	0.0	0.0	0.0	0.0	0.0	0.0	0.0	0.0	0.0	0.0	0.0	0.0	146.13793103448276	0.0	0.05187975	-0.039733785	1.013608245	0.73248	2.31952	0.62566	3288922.0	1776544968.29802	0.0	1.0	-1.0	-1.0	-1.0	-1.0	-1.0	-1.0	-1.0	-1.0	0.0	marker	peace	Peace	25	0418
-68478.84	-54643.229999999996	-104702.355	-18555.03	0.0	0.0	0.0	0.0	0.0	0.0	0.0	0.0	0.0	0.0	0.0	0.0	0.0	0.0	146.13793103448276	0.0	0.05187975	-0.039733785	1.013608245	0.73248	2.31952	0.62566	3288923.0	1776544968.298029	0.0	1.0	-1.0	-1.0	-1.0	-1.0	-1.0	-1.0	-1.0	-1.0	0.0	marker	peace	Peace	25	0418
-68464.035	-54642.015	-104694.93	-18530.19	0.0	0.0	0.0	0.0	0.0	0.0	0.0	0.0	0.0	0.0	0.0	0.0	0.0	0.0	146.13793103448276	0.0	0.05187975	-0.039733785	1.013608245	0.73248	2.31952	0.62566	3288924.0	1776544968.298036	0.0	1.0	-1.0	-1.0	-1.0	-1.0	-1.0	-1.0	-1.0	-1.0	0.0	marker	peace	Peace	25	0418
-68487.705	-54640.259999999995	-104705.73	-18522.54	0.0	0.0	0.0	0.0	0.0	0.0	0.0	0.0	0.0	0.0	0.0	0.0	0.0	0.0	146.13793103448276	0.0	0.05187975	-0.039733785	1.013608245	0.73248	2.31952	0.62566	3288925.0	1776544968.298046	0.0	1.0	-1.0	-1.0	-1.0	-1.0	-1.0	-1.0	-1.0	-1.0	0.0	marker	peace	Peace	25	0418
-68460.255	-54630.045	-104692.68	-18512.235	0.0	0.0	0.0	0.0	0.0	0.0	0.0	0.0	0.0	0.0	0.0	0.0	0.0	0.0	146.13793103448276	0.0	0.05187975	-0.039733785	1.013608245	0.73248	2.31952	0.62566	3288926.0	1776544968.298053	0.0	1.0	-1.0	-1.0	-1.0	-1.0	-1.0	-1.0	-1.0	-1.0	0.0	marker	peace	Peace	25	0418
-68444.64	-54627.479999999996	-104675.22	-18504.765	0.0	0.0	0.0	0.0	0.0	0.0	0.0	0.0	0.0	0.0	0.0	0.0	0.0	0.0	146.13793103448276	0.0	0.047546265	-0.04956042	1.01452377	2.8230999999999997	2.0601	-0.82404	3288927.0	1776544968.298065	0.0	1.0	-1.0	-1.0	-1.0	-1.0	-1.0	-1.0	-1.0	-1.0	0.0	marker	peace	Peace	25	0418
-68485.5	-54632.924999999996	-104708.205	-18537.704999999998	0.0	0.0	0.0	0.0	0.0	0.0	0.0	0.0	0.0	0.0	0.0	0.0	0.0	0.0	146.13793103448276	0.0	0.047546265	-0.04956042	1.01452377	2.8230999999999997	2.0601	-0.82404	3288928.0	1776544968.298073	0.0	1.0	-1.0	-1.0	-1.0	-1.0	-1.0	-1.0	-1.0	-1.0	0.0	marker	peace	Peace	25	0418
-68518.89	-54643.59	-104716.305	-18553.905	0.0	0.0	0.0	0.0	0.0	0.0	0.0	0.0	0.0	0.0	0.0	0.0	0.0	0.0	146.13793103448276	0.0	0.047546265	-0.04956042	1.01452377	2.8230999999999997	2.0601	-0.82404	3288929.0	1776544968.298084	0.0	1.0	-1.0	-1.0	-1.0	-1.0	-1.0	-1.0	-1.0	-1.0	0.0	marker	peace	Peace	25	0418
-68470.425	-54642.869999999995	-104667.61499999999	-18498.645	0.0	0.0	0.0	0.0	0.0	0.0	0.0	0.0	0.0	0.0	0.0	0.0	0.0	0.0	146.13793103448276	0.0	0.047546265	-0.04956042	1.01452377	2.8230999999999997	2.0601	-0.82404	3288930.0	1776544968.298091	0.0	1.0	-1.0	-1.0	-1.0	-1.0	-1.0	-1.0	-1.0	-1.0	0.0	marker	peace	Peace	25	0418
-68465.205	-54642.015	-104689.215	-18515.07	0.0	0.0	0.0	0.0	0.0	0.0	0.0	0.0	0.0	0.0	0.0	0.0	0.0	0.0	146.13793103448276	0.0	0.047546265	-0.04956042	1.01452377	2.8230999999999997	2.0601	-0.82404	3288931.0	1776544968.298102	0.0	1.0	-1.0	-1.0	-1.0	-1.0	-1.0	-1.0	-1.0	-1.0	0.0	marker	peace	Peace	25	0418
-68471.325	-54650.97	-104703.84	-18549.18	0.0	0.0	0.0	0.0	0.0	0.0	0.0	0.0	0.0	0.0	0.0	0.0	0.0	0.0	146.13793103448276	0.0	0.047546265	-0.04956042	1.01452377	2.8230999999999997	2.0601	-0.82404	3288932.0	1776544968.29811	0.0	1.0	-1.0	-1.0	-1.0	-1.0	-1.0	-1.0	-1.0	-1.0	0.0	marker	peace	Peace	25	0418
-68475.19499999999	-54659.07	-104678.055	-18542.745	0.0	0.0	0.0	0.0	0.0	0.0	0.0	0.0	0.0	0.0	0.0	0.0	0.0	0.0	146.13793103448276	0.0	0.047546265	-0.04956042	1.01452377	2.8230999999999997	2.0601	-0.82404	3288933.0	1776544968.29812	0.0	1.0	-1.0	-1.0	-1.0	-1.0	-1.0	-1.0	-1.0	-1.0	0.0	marker	peace	Peace	25	0418
-68509.845	-54659.88	-104695.605	-18534.645	0.0	0.0	0.0	0.0	0.0	0.0	0.0	0.0	0.0	0.0	0.0	0.0	0.0	0.0	146.13793103448276	0.0	0.047546265	-0.04956042	1.01452377	2.8230999999999997	2.0601	-0.82404	3288934.0	1776544968.298127	0.0	1.0	-1.0	-1.0	-1.0	-1.0	-1.0	-1.0	-1.0	-1.0	0.0	marker	peace	Peace	25	0418
-68507.37	-54661.994999999995	-104707.39499999999	-18516.78	0.0	0.0	0.0	0.0	0.0	0.0	0.0	0.0	0.0	0.0	0.0	0.0	0.0	0.0	146.13793103448276	0.0	0.047546265	-0.04956042	1.01452377	2.8230999999999997	2.0601	-0.82404	3288935.0	1776544968.300168	0.0	1.0	-1.0	-1.0	-1.0	-1.0	-1.0	-1.0	-1.0	-1.0	0.0	marker	peace	Peace	25	0418
-68498.595	-54668.159999999996	-104717.11499999999	-18536.13	0.0	0.0	0.0	0.0	0.0	0.0	0.0	0.0	0.0	0.0	0.0	0.0	0.0	0.0	146.13793103448276	0.0	0.047546265	-0.04956042	1.01452377	2.8230999999999997	2.0601	-0.82404	3288936.0	1776544968.300191	0.0	1.0	-1.0	-1.0	-1.0	-1.0	-1.0	-1.0	-1.0	-1.0	0.0	marker	peace	Peace	25	0418
-68494.68	-54671.4	-104717.745	-18549.765	0.0	0.0	0.0	0.0	0.0	0.0	0.0	0.0	0.0	0.0	0.0	0.0	0.0	0.0	146.13793103448276	0.0	0.040344135	-0.049377315	1.021420725	7.095899999999999	1.64808	-0.85456	3288937.0	1776544968.304029	0.0	1.0	-1.0	-1.0	-1.0	-1.0	-1.0	-1.0	-1.0	-1.0	0.0	marker	peace	Peace	25	0418
-68491.53	-54677.115	-104690.79	-18535.364999999998	0.0	0.0	0.0	0.0	0.0	0.0	0.0	0.0	0.0	0.0	0.0	0.0	0.0	0.0	146.13793103448276	0.0	0.040344135	-0.049377315	1.021420725	7.095899999999999	1.64808	-0.85456	3288938.0	1776544968.304071	0.0	1.0	-1.0	-1.0	-1.0	-1.0	-1.0	-1.0	-1.0	-1.0	0.0	marker	peace	Peace	25	0418
-68497.425	-54694.17	-104671.215	-18528.795	0.0	0.0	0.0	0.0	0.0	0.0	0.0	0.0	0.0	0.0	0.0	0.0	0.0	0.0	146.13793103448276	0.0	0.040344135	-0.049377315	1.021420725	7.095899999999999	1.64808	-0.85456	3288939.0	1776544968.308019	0.0	1.0	-1.0	-1.0	-1.0	-1.0	-1.0	-1.0	-1.0	-1.0	0.0	marker	peace	Peace	25	0418
-68475.105	-54691.695	-104674.68	-18528.93	0.0	0.0	0.0	0.0	0.0	0.0	0.0	0.0	0.0	0.0	0.0	0.0	0.0	0.0	146.13793103448276	0.0	0.040344135	-0.049377315	1.021420725	7.095899999999999	1.64808	-0.85456	3288940.0	1776544968.308034	0.0	1.0	-1.0	-1.0	-1.0	-1.0	-1.0	-1.0	-1.0	-1.0	0.0	marker	peace	Peace	25	0418
-68480.955	-54683.865	-104673.555	-18525.015	0.0	0.0	0.0	0.0	0.0	0.0	0.0	0.0	0.0	0.0	0.0	0.0	0.0	0.0	146.13793103448276	0.0	0.040344135	-0.049377315	1.021420725	7.095899999999999	1.64808	-0.85456	3288941.0	1776544968.315502	0.0	1.0	-1.0	-1.0	-1.0	-1.0	-1.0	-1.0	-1.0	-1.0	0.0	marker	peace	Peace	25	0418
-68499.18	-54680.265	-104695.29	-18538.875	0.0	0.0	0.0	0.0	0.0	0.0	0.0	0.0	0.0	0.0	0.0	0.0	0.0	0.0	146.13793103448276	0.0	0.040344135	-0.049377315	1.021420725	7.095899999999999	1.64808	-0.85456	3288942.0	1776544968.315536	0.0	1.0	-1.0	-1.0	-1.0	-1.0	-1.0	-1.0	-1.0	-1.0	0.0	marker	peace	Peace	25	0418
-68491.89	-54679.994999999995	-104722.965	-18540.719999999998	0.0	0.0	0.0	0.0	0.0	0.0	0.0	0.0	0.0	0.0	0.0	0.0	0.0	0.0	146.13793103448276	0.0	0.040344135	-0.049377315	1.021420725	7.095899999999999	1.64808	-0.85456	3288943.0	1776544968.316199	0.0	1.0	-1.0	-1.0	-1.0	-1.0	-1.0	-1.0	-1.0	-1.0	0.0	marker	peace	Peace	25	0418
-68487.885	-54683.505	-104720.22	-18527.94	0.0	0.0	0.0	0.0	0.0	0.0	0.0	0.0	0.0	0.0	0.0	0.0	0.0	0.0	146.13793103448276	0.0	0.040344135	-0.049377315	1.021420725	7.095899999999999	1.64808	-0.85456	3288944.0	1776544968.316703	0.0	1.0	-1.0	-1.0	-1.0	-1.0	-1.0	-1.0	-1.0	-1.0	0.0	marker	peace	Peace	25	0418
-68467.31999999999	-54684.09	-104699.745	-18519.48	0.0	0.0	0.0	0.0	0.0	0.0	0.0	0.0	0.0	0.0	0.0	0.0	0.0	0.0	146.13793103448276	0.0	0.040344135	-0.049377315	1.021420725	7.095899999999999	1.64808	-0.85456	3288945.0	1776544968.320171	0.0	1.0	-1.0	-1.0	-1.0	-1.0	-1.0	-1.0	-1.0	-1.0	0.0	marker	peace	Peace	25	0418
-68477.67	-54689.085	-104690.295	-18521.01	0.0	0.0	0.0	0.0	0.0	0.0	0.0	0.0	0.0	0.0	0.0	0.0	0.0	0.0	146.13793103448276	0.0	0.040344135	-0.049377315	1.021420725	7.095899999999999	1.64808	-0.85456	3288946.0	1776544968.320195	0.0	1.0	-1.0	-1.0	-1.0	-1.0	-1.0	-1.0	-1.0	-1.0	0.0	marker	peace	Peace	25	0418
-68488.47	-54696.195	-104685.525	-18516.915	0.0	0.0	0.0	0.0	0.0	0.0	0.0	0.0	0.0	0.0	0.0	0.0	0.0	0.0	146.13793103448276	0.0	0.036437895	-0.044128305	1.025449035	4.3491	0.39676	-1.31236	3288947.0	1776544968.324393	0.0	1.0	-1.0	-1.0	-1.0	-1.0	-1.0	-1.0	-1.0	-1.0	0.0	marker	peace	Peace	25	0418
-68488.33499999999	-54706.77	-104690.34	-18526.545	0.0	0.0	0.0	0.0	0.0	0.0	0.0	0.0	0.0	0.0	0.0	0.0	0.0	0.0	146.13793103448276	0.0	0.036437895	-0.044128305	1.025449035	4.3491	0.39676	-1.31236	3288948.0	1776544968.324412	0.0	1.0	-1.0	-1.0	-1.0	-1.0	-1.0	-1.0	-1.0	-1.0	0.0	marker	peace	Peace	25	0418
-68464.98	-54705.195	-104672.34	-18508.59	0.0	0.0	0.0	0.0	0.0	0.0	0.0	0.0	0.0	0.0	0.0	0.0	0.0	0.0	146.13793103448276	0.0	0.036437895	-0.044128305	1.025449035	4.3491	0.39676	-1.31236	3288949.0	1776544968.328081	0.0	1.0	-1.0	-1.0	-1.0	-1.0	-1.0	-1.0	-1.0	-1.0	0.0	marker	peace	Peace	25	0418
-68444.595	-54688.5	-104661.855	-18492.255	0.0	0.0	0.0	0.0	0.0	0.0	0.0	0.0	0.0	0.0	0.0	0.0	0.0	0.0	146.13793103448276	0.0	0.036437895	-0.044128305	1.025449035	4.3491	0.39676	-1.31236	3288950.0	1776544968.328092	0.0	1.0	-1.0	-1.0	-1.0	-1.0	-1.0	-1.0	-1.0	-1.0	0.0	marker	peace	Peace	25	0418
-68508.45	-54676.575	-104726.79	-18561.78	0.0	0.0	0.0	0.0	0.0	0.0	0.0	0.0	0.0	0.0	0.0	0.0	0.0	0.0	146.13793103448276	0.0	0.036437895	-0.044128305	1.025449035	4.3491	0.39676	-1.31236	3288951.0	1776544968.332232	0.0	1.0	-1.0	-1.0	-1.0	-1.0	-1.0	-1.0	-1.0	-1.0	0.0	marker	peace	Peace	25	0418
-68534.415	-54673.2	-104746.23	-18569.16	0.0	0.0	0.0	0.0	0.0	0.0	0.0	0.0	0.0	0.0	0.0	0.0	0.0	0.0	146.13793103448276	0.0	0.036437895	-0.044128305	1.025449035	4.3491	0.39676	-1.31236	3288952.0	1776544968.332256	0.0	1.0	-1.0	-1.0	-1.0	-1.0	-1.0	-1.0	-1.0	-1.0	0.0	marker	peace	Peace	25	0418
-68519.11499999999	-54671.625	-104737.905	-18553.815	0.0	0.0	0.0	0.0	0.0	0.0	0.0	0.0	0.0	0.0	0.0	0.0	0.0	0.0	146.13793103448276	0.0	0.036437895	-0.044128305	1.025449035	4.3491	0.39676	-1.31236	3288953.0	1776544968.384215	0.0	1.0	-1.0	-1.0	-1.0	-1.0	-1.0	-1.0	-1.0	-1.0	0.0	marker	peace	Peace	25	0418
-68481.63	-54681.255	-104708.655	-18520.155	0.0	0.0	0.0	0.0	0.0	0.0	0.0	0.0	0.0	0.0	0.0	0.0	0.0	0.0	146.13793103448276	0.0	0.036437895	-0.044128305	1.025449035	4.3491	0.39676	-1.31236	3288954.0	1776544968.384254	0.0	1.0	-1.0	-1.0	-1.0	-1.0	-1.0	-1.0	-1.0	-1.0	0.0	marker	peace	Peace	25	0418
-68447.295	-54689.31	-104657.89499999999	-18500.805	0.0	0.0	0.0	0.0	0.0	0.0	0.0	0.0	0.0	0.0	0.0	0.0	0.0	0.0	146.13793103448276	0.0	0.036437895	-0.044128305	1.025449035	4.3491	0.39676	-1.31236	3288955.0	1776544968.384295	0.0	1.0	-1.0	-1.0	-1.0	-1.0	-1.0	-1.0	-1.0	-1.0	0.0	marker	peace	Peace	25	0418
-68474.7	-54696.24	-104643.315	-18507.375	0.0	0.0	0.0	0.0	0.0	0.0	0.0	0.0	0.0	0.0	0.0	0.0	0.0	0.0	146.13793103448276	0.0	0.036437895	-0.044128305	1.025449035	4.3491	0.39676	-1.31236	3288956.0	1776544968.384315	0.0	1.0	-1.0	-1.0	-1.0	-1.0	-1.0	-1.0	-1.0	-1.0	0.0	marker	peace	Peace	25	0418
-68444.45999999999	-54698.67	-104595.075	-18474.66	0.0	0.0	0.0	0.0	0.0	0.0	0.0	0.0	0.0	0.0	0.0	0.0	0.0	0.0	146.13793103448276	0.0	0.039001365	-0.032531655	1.027402155	1.96854	-0.01526	-0.35097999999999996	3288957.0	1776544968.38434	0.0	1.0	-1.0	-1.0	-1.0	-1.0	-1.0	-1.0	-1.0	-1.0	0.0	marker	peace	Peace	25	0418
-68492.025	-54701.775	-104655.06	-18520.605	0.0	0.0	0.0	0.0	0.0	0.0	0.0	0.0	0.0	0.0	0.0	0.0	0.0	0.0	146.13793103448276	0.0	0.039001365	-0.032531655	1.027402155	1.96854	-0.01526	-0.35097999999999996	3288958.0	1776544968.38436	0.0	1.0	-1.0	-1.0	-1.0	-1.0	-1.0	-1.0	-1.0	-1.0	0.0	marker	peace	Peace	25	0418
-68450.715	-54689.579999999994	-104687.09999999999	-18490.68	0.0	0.0	0.0	0.0	0.0	0.0	0.0	0.0	0.0	0.0	0.0	0.0	0.0	0.0	146.13793103448276	0.0	0.039001365	-0.032531655	1.027402155	1.96854	-0.01526	-0.35097999999999996	3288959.0	1776544968.384384	0.0	1.0	-1.0	-1.0	-1.0	-1.0	-1.0	-1.0	-1.0	-1.0	0.0	marker	peace	Peace	25	0418
-68441.22	-54680.895	-104697.36	-18498.87	0.0	0.0	0.0	0.0	0.0	0.0	0.0	0.0	0.0	0.0	0.0	0.0	0.0	0.0	146.13793103448276	0.0	0.039001365	-0.032531655	1.027402155	1.96854	-0.01526	-0.35097999999999996	3288960.0	1776544968.384395	0.0	1.0	-1.0	-1.0	-1.0	-1.0	-1.0	-1.0	-1.0	-1.0	0.0	marker	peace	Peace	25	0418
-68472.94499999999	-54679.77	-104702.175	-18537.165	0.0	0.0	0.0	0.0	0.0	0.0	0.0	0.0	0.0	0.0	0.0	0.0	0.0	0.0	146.13793103448276	0.0	0.039001365	-0.032531655	1.027402155	1.96854	-0.01526	-0.35097999999999996	3288961.0	1776544968.384412	0.0	1.0	-1.0	-1.0	-1.0	-1.0	-1.0	-1.0	-1.0	-1.0	0.0	marker	peace	Peace	25	0418
-68507.64	-54685.305	-104720.625	-18542.114999999998	0.0	0.0	0.0	0.0	0.0	0.0	0.0	0.0	0.0	0.0	0.0	0.0	0.0	0.0	146.13793103448276	0.0	0.039001365	-0.032531655	1.027402155	1.96854	-0.01526	-0.35097999999999996	3288962.0	1776544968.384422	0.0	1.0	-1.0	-1.0	-1.0	-1.0	-1.0	-1.0	-1.0	-1.0	0.0	marker	peace	Peace	25	0418
-68526.72	-54687.645	-104725.125	-18537.75	0.0	0.0	0.0	0.0	0.0	0.0	0.0	0.0	0.0	0.0	0.0	0.0	0.0	0.0	146.13793103448276	0.0	0.039001365	-0.032531655	1.027402155	1.96854	-0.01526	-0.35097999999999996	3288963.0	1776544968.384435	0.0	1.0	-1.0	-1.0	-1.0	-1.0	-1.0	-1.0	-1.0	-1.0	0.0	marker	peace	Peace	25	0418
-68519.565	-54611.28	-104717.205	-18550.755	0.0	0.0	0.0	0.0	0.0	0.0	0.0	0.0	0.0	0.0	0.0	0.0	0.0	0.0	146.13793103448276	0.0	0.039001365	-0.032531655	1.027402155	1.96854	-0.01526	-0.35097999999999996	3288964.0	1776544968.384446	0.0	1.0	-1.0	-1.0	-1.0	-1.0	-1.0	-1.0	-1.0	-1.0	0.0	marker	peace	Peace	25	0418
-68518.8	-54535.905	-104720.44499999999	-18574.11	0.0	0.0	0.0	0.0	0.0	0.0	0.0	0.0	0.0	0.0	0.0	0.0	0.0	0.0	146.13793103448276	0.0	0.039001365	-0.032531655	1.027402155	1.96854	-0.01526	-0.35097999999999996	3288965.0	1776544968.38446	0.0	1.0	-1.0	-1.0	-1.0	-1.0	-1.0	-1.0	-1.0	-1.0	0.0	marker	peace	Peace	25	0418
-68520.87	-54518.22	-104732.595	-18566.37	0.0	0.0	0.0	0.0	0.0	0.0	0.0	0.0	0.0	0.0	0.0	0.0	0.0	0.0	146.13793103448276	0.0	0.039001365	-0.032531655	1.027402155	1.96854	-0.01526	-0.35097999999999996	3288966.0	1776544968.38447	0.0	1.0	-1.0	-1.0	-1.0	-1.0	-1.0	-1.0	-1.0	-1.0	0.0	marker	peace	Peace	25	0418
-68508.045	-54505.305	-104709.015	-18552.015	0.0	0.0	0.0	0.0	0.0	0.0	0.0	0.0	0.0	0.0	0.0	0.0	0.0	0.0	146.13793103448276	0.0	0.037780665	-0.036071685	1.02966045	1.96854	-0.88508	-0.16785999999999998	3288967.0	1776544968.384483	0.0	1.0	-1.0	-1.0	-1.0	-1.0	-1.0	-1.0	-1.0	-1.0	0.0	marker	peace	Peace	25	0418
-68511.555	-54511.155	-104699.97	-18555.075	0.0	0.0	0.0	0.0	0.0	0.0	0.0	0.0	0.0	0.0	0.0	0.0	0.0	0.0	146.13793103448276	0.0	0.037780665	-0.036071685	1.02966045	1.96854	-0.88508	-0.16785999999999998	3288968.0	1776544968.384493	0.0	1.0	-1.0	-1.0	-1.0	-1.0	-1.0	-1.0	-1.0	-1.0	0.0	marker	peace	Peace	25	0418
-68492.43	-54516.104999999996	-104694.165	-18548.19	0.0	0.0	0.0	0.0	0.0	0.0	0.0	0.0	0.0	0.0	0.0	0.0	0.0	0.0	146.13793103448276	0.0	0.037780665	-0.036071685	1.02966045	1.96854	-0.88508	-0.16785999999999998	3288969.0	1776544968.38593	0.0	1.0	-1.0	-1.0	-1.0	-1.0	-1.0	-1.0	-1.0	-1.0	0.0	marker	peace	Peace	25	0418
-68443.83	-54512.415	-104671.89	-18513.495	0.0	0.0	0.0	0.0	0.0	0.0	0.0	0.0	0.0	0.0	0.0	0.0	0.0	0.0	146.13793103448276	0.0	0.037780665	-0.036071685	1.02966045	1.96854	-0.88508	-0.16785999999999998	3288970.0	1776544968.385972	0.0	1.0	-1.0	-1.0	-1.0	-1.0	-1.0	-1.0	-1.0	-1.0	0.0	marker	peace	Peace	25	0418
-68432.265	-54514.665	-104668.69499999999	-18500.355	0.0	0.0	0.0	0.0	0.0	0.0	0.0	0.0	0.0	0.0	0.0	0.0	0.0	0.0	146.13793103448276	0.0	0.037780665	-0.036071685	1.02966045	1.96854	-0.88508	-0.16785999999999998	3288971.0	1776544968.386012	0.0	1.0	-1.0	-1.0	-1.0	-1.0	-1.0	-1.0	-1.0	-1.0	0.0	marker	peace	Peace	25	0418
-68466.735	-54522.27	-104693.175	-18518.805	0.0	0.0	0.0	0.0	0.0	0.0	0.0	0.0	0.0	0.0	0.0	0.0	0.0	0.0	146.13793103448276	0.0	0.037780665	-0.036071685	1.02966045	1.96854	-0.88508	-0.16785999999999998	3288972.0	1776544968.386033	0.0	1.0	-1.0	-1.0	-1.0	-1.0	-1.0	-1.0	-1.0	-1.0	0.0	marker	peace	Peace	25	0418
-68514.03	-54521.64	-104724.045	-18555.255	0.0	0.0	0.0	0.0	0.0	0.0	0.0	0.0	0.0	0.0	0.0	0.0	0.0	0.0	146.13793103448276	0.0	0.037780665	-0.036071685	1.02966045	1.96854	-0.88508	-0.16785999999999998	3288973.0	1776544968.386058	0.0	1.0	-1.0	-1.0	-1.0	-1.0	-1.0	-1.0	-1.0	-1.0	0.0	marker	peace	Peace	25	0418
-68524.02	-54519.84	-104719.545	-18555.704999999998	0.0	0.0	0.0	0.0	0.0	0.0	0.0	0.0	0.0	0.0	0.0	0.0	0.0	0.0	146.13793103448276	0.0	0.037780665	-0.036071685	1.02966045	1.96854	-0.88508	-0.16785999999999998	3288974.0	1776544968.386078	0.0	1.0	-1.0	-1.0	-1.0	-1.0	-1.0	-1.0	-1.0	-1.0	0.0	marker	peace	Peace	25	0418
-68504.67	-54507.6	-104712.525	-18555.66	0.0	0.0	0.0	0.0	0.0	0.0	0.0	0.0	0.0	0.0	0.0	0.0	0.0	0.0	146.13793103448276	0.0	0.037780665	-0.036071685	1.02966045	1.96854	-0.88508	-0.16785999999999998	3288975.0	1776544968.386148	0.0	1.0	-1.0	-1.0	-1.0	-1.0	-1.0	-1.0	-1.0	-1.0	0.0	marker	peace	Peace	25	0418
-68502.555	-54500.265	-104707.215	-18541.934999999998	0.0	0.0	0.0	0.0	0.0	0.0	0.0	0.0	0.0	0.0	0.0	0.0	0.0	0.0	146.13793103448276	0.0	0.037780665	-0.036071685	1.02966045	1.96854	-0.88508	-0.16785999999999998	3288976.0	1776544968.386166	0.0	1.0	-1.0	-1.0	-1.0	-1.0	-1.0	-1.0	-1.0	-1.0	0.0	marker	peace	Peace	25	0418
-68479.2	-54500.174999999996	-104683.905	-18517.905	0.0	0.0	0.0	0.0	0.0	0.0	0.0	0.0	0.0	0.0	0.0	0.0	0.0	0.0	146.13793103448276	0.0	0.03845205	-0.043273815	1.031186325	4.39488	-1.72438	-1.6633399999999998	3288977.0	1776544968.524808	0.0	1.0	-1.0	-1.0	-1.0	-1.0	-1.0	-1.0	-1.0	-1.0	0.0	marker	peace	Peace	25	0418
-68457.23999999999	-54509.445	-104674.59	-18507.825	0.0	0.0	0.0	0.0	0.0	0.0	0.0	0.0	0.0	0.0	0.0	0.0	0.0	0.0	146.13793103448276	0.0	0.03845205	-0.043273815	1.031186325	4.39488	-1.72438	-1.6633399999999998	3288978.0	1776544968.524834	0.0	1.0	-1.0	-1.0	-1.0	-1.0	-1.0	-1.0	-1.0	-1.0	0.0	marker	peace	Peace	25	0418
-68497.605	-54536.895	-104719.36499999999	-18563.579999999998	0.0	0.0	0.0	0.0	0.0	0.0	0.0	0.0	0.0	0.0	0.0	0.0	0.0	0.0	146.13793103448276	0.0	0.03845205	-0.043273815	1.031186325	4.39488	-1.72438	-1.6633399999999998	3288979.0	1776544968.524899	0.0	1.0	-1.0	-1.0	-1.0	-1.0	-1.0	-1.0	-1.0	-1.0	0.0	marker	peace	Peace	25	0418
-68500.215	-54557.055	-104716.26	-18572.579999999998	0.0	0.0	0.0	0.0	0.0	0.0	0.0	0.0	0.0	0.0	0.0	0.0	0.0	0.0	146.13793103448276	0.0	0.03845205	-0.043273815	1.031186325	4.39488	-1.72438	-1.6633399999999998	3288980.0	1776544968.524908	0.0	1.0	-1.0	-1.0	-1.0	-1.0	-1.0	-1.0	-1.0	-1.0	0.0	marker	peace	Peace	25	0418
-68484.915	-54554.895	-104694.03	-18536.265	0.0	0.0	0.0	0.0	0.0	0.0	0.0	0.0	0.0	0.0	0.0	0.0	0.0	0.0	146.13793103448276	0.0	0.03845205	-0.043273815	1.031186325	4.39488	-1.72438	-1.6633399999999998	3288981.0	1776544968.524955	0.0	1.0	-1.0	-1.0	-1.0	-1.0	-1.0	-1.0	-1.0	-1.0	0.0	marker	peace	Peace	25	0418
-68490.09	-54545.22	-104682.105	-18506.835	0.0	0.0	0.0	0.0	0.0	0.0	0.0	0.0	0.0	0.0	0.0	0.0	0.0	0.0	146.13793103448276	0.0	0.03845205	-0.043273815	1.031186325	4.39488	-1.72438	-1.6633399999999998	3288982.0	1776544968.524962	0.0	1.0	-1.0	-1.0	-1.0	-1.0	-1.0	-1.0	-1.0	-1.0	0.0	marker	peace	Peace	25	0418
-68512.14	-54546.255	-104716.89	-18542.52	0.0	0.0	0.0	0.0	0.0	0.0	0.0	0.0	0.0	0.0	0.0	0.0	0.0	0.0	146.13793103448276	0.0	0.03845205	-0.043273815	1.031186325	4.39488	-1.72438	-1.6633399999999998	3288983.0	1776544968.524977	0.0	1.0	-1.0	-1.0	-1.0	-1.0	-1.0	-1.0	-1.0	-1.0	0.0	marker	peace	Peace	25	0418
-68510.83499999999	-54550.079999999994	-104727.015	-18554.13	0.0	0.0	0.0	0.0	0.0	0.0	0.0	0.0	0.0	0.0	0.0	0.0	0.0	0.0	146.13793103448276	0.0	0.03845205	-0.043273815	1.031186325	4.39488	-1.72438	-1.6633399999999998	3288984.0	1776544968.524984	0.0	1.0	-1.0	-1.0	-1.0	-1.0	-1.0	-1.0	-1.0	-1.0	0.0	marker	peace	Peace	25	0418
-68494.545	-54546.299999999996	-104710.905	-18539.73	0.0	0.0	0.0	0.0	0.0	0.0	0.0	0.0	0.0	0.0	0.0	0.0	0.0	0.0	146.13793103448276	0.0	0.03845205	-0.043273815	1.031186325	4.39488	-1.72438	-1.6633399999999998	3288985.0	1776544968.525038	0.0	1.0	-1.0	-1.0	-1.0	-1.0	-1.0	-1.0	-1.0	-1.0	0.0	marker	peace	Peace	25	0418
-68466.06	-54543.104999999996	-104686.33499999999	-18517.68	0.0	0.0	0.0	0.0	0.0	0.0	0.0	0.0	0.0	0.0	0.0	0.0	0.0	0.0	146.13793103448276	0.0	0.03845205	-0.043273815	1.031186325	4.39488	-1.72438	-1.6633399999999998	3288986.0	1776544968.525047	0.0	1.0	-1.0	-1.0	-1.0	-1.0	-1.0	-1.0	-1.0	-1.0	0.0	marker	peace	Peace	25	0418
-68445.135	-54547.424999999996	-104657.67	-18489.735	0.0	0.0	0.0	0.0	0.0	0.0	0.0	0.0	0.0	0.0	0.0	0.0	0.0	0.0	146.13793103448276	0.0	0.036926175	-0.04187001	1.02697491	4.3338399999999995	-2.86888	-1.2207999999999999	3288987.0	1776544968.525082	0.0	1.0	-1.0	-1.0	-1.0	-1.0	-1.0	-1.0	-1.0	-1.0	0.0	marker	peace	Peace	25	0418
-68469.84	-54555.345	-104672.7	-18506.07	0.0	0.0	0.0	0.0	0.0	0.0	0.0	0.0	0.0	0.0	0.0	0.0	0.0	0.0	146.13793103448276	0.0	0.036926175	-0.04187001	1.02697491	4.3338399999999995	-2.86888	-1.2207999999999999	3288988.0	1776544968.52509	0.0	1.0	-1.0	-1.0	-1.0	-1.0	-1.0	-1.0	-1.0	-1.0	0.0	marker	peace	Peace	25	0418
-68459.58	-54559.845	-104668.515	-18511.875	0.0	0.0	0.0	0.0	0.0	0.0	0.0	0.0	0.0	0.0	0.0	0.0	0.0	0.0	146.13793103448276	0.0	0.036926175	-0.04187001	1.02697491	4.3338399999999995	-2.86888	-1.2207999999999999	3288989.0	1776544968.52511	0.0	1.0	-1.0	-1.0	-1.0	-1.0	-1.0	-1.0	-1.0	-1.0	0.0	marker	peace	Peace	25	0418
-68527.08	-54565.695	-104731.37999999999	-18570.015	0.0	0.0	0.0	0.0	0.0	0.0	0.0	0.0	0.0	0.0	0.0	0.0	0.0	0.0	146.13793103448276	0.0	0.036926175	-0.04187001	1.02697491	4.3338399999999995	-2.86888	-1.2207999999999999	3288990.0	1776544968.525118	0.0	1.0	-1.0	-1.0	-1.0	-1.0	-1.0	-1.0	-1.0	-1.0	0.0	marker	peace	Peace	25	0418
-68522.805	-54568.439999999995	-104721.435	-18551.52	0.0	0.0	0.0	0.0	0.0	0.0	0.0	0.0	0.0	0.0	0.0	0.0	0.0	0.0	146.13793103448276	0.0	0.036926175	-0.04187001	1.02697491	4.3338399999999995	-2.86888	-1.2207999999999999	3288991.0	1776544968.525128	0.0	1.0	-1.0	-1.0	-1.0	-1.0	-1.0	-1.0	-1.0	-1.0	0.0	marker	peace	Peace	25	0418
-68486.175	-54562.545	-104692.095	-18522.405	0.0	0.0	0.0	0.0	0.0	0.0	0.0	0.0	0.0	0.0	0.0	0.0	0.0	0.0	146.13793103448276	0.0	0.036926175	-0.04187001	1.02697491	4.3338399999999995	-2.86888	-1.2207999999999999	3288992.0	1776544968.525135	0.0	1.0	-1.0	-1.0	-1.0	-1.0	-1.0	-1.0	-1.0	-1.0	0.0	marker	peace	Peace	25	0418
-68470.73999999999	-54564.479999999996	-104685.165	-18520.02	0.0	0.0	0.0	0.0	0.0	0.0	0.0	0.0	0.0	0.0	0.0	0.0	0.0	0.0	146.13793103448276	0.0	0.036926175	-0.04187001	1.02697491	4.3338399999999995	-2.86888	-1.2207999999999999	3288993.0	1776544968.525159	0.0	1.0	-1.0	-1.0	-1.0	-1.0	-1.0	-1.0	-1.0	-1.0	0.0	marker	peace	Peace	25	0418
-68456.16	-54570.825	-104658.345	-18492.434999999998	0.0	0.0	0.0	0.0	0.0	0.0	0.0	0.0	0.0	0.0	0.0	0.0	0.0	0.0	146.13793103448276	0.0	0.036926175	-0.04187001	1.02697491	4.3338399999999995	-2.86888	-1.2207999999999999	3288994.0	1776544968.525166	0.0	1.0	-1.0	-1.0	-1.0	-1.0	-1.0	-1.0	-1.0	-1.0	0.0	marker	peace	Peace	25	0418
-68406.795	-54581.22	-104614.515	-18460.575	0.0	0.0	0.0	0.0	0.0	0.0	0.0	0.0	0.0	0.0	0.0	0.0	0.0	0.0	146.13793103448276	0.0	0.036926175	-0.04187001	1.02697491	4.3338399999999995	-2.86888	-1.2207999999999999	3288995.0	1776544968.525176	0.0	1.0	-1.0	-1.0	-1.0	-1.0	-1.0	-1.0	-1.0	-1.0	0.0	marker	peace	Peace	25	0418
-68409.0	-54586.845	-104640.795	-18501.344999999998	0.0	0.0	0.0	0.0	0.0	0.0	0.0	0.0	0.0	0.0	0.0	0.0	0.0	0.0	146.13793103448276	0.0	0.036926175	-0.04187001	1.02697491	4.3338399999999995	-2.86888	-1.2207999999999999	3288996.0	1776544968.525184	0.0	1.0	-1.0	-1.0	-1.0	-1.0	-1.0	-1.0	-1.0	-1.0	0.0	marker	peace	Peace	25	0418
-68512.77	-54603.54	-104706.94499999999	-18562.68	0.0	0.0	0.0	0.0	0.0	0.0	0.0	0.0	0.0	0.0	0.0	0.0	0.0	0.0	146.13793103448276	0.0	0.0415038	-0.037719630000000004	1.01550033	4.10494	-1.9075	-0.09156	3288997.0	1776544968.525194	0.0	1.0	-1.0	-1.0	-1.0	-1.0	-1.0	-1.0	-1.0	-1.0	0.0	marker	peace	Peace	25	0418
-68527.44	-54608.534999999996	-104710.68	-18548.415	0.0	0.0	0.0	0.0	0.0	0.0	0.0	0.0	0.0	0.0	0.0	0.0	0.0	0.0	146.13793103448276	0.0	0.0415038	-0.037719630000000004	1.01550033	4.10494	-1.9075	-0.09156	3288998.0	1776544968.525201	0.0	1.0	-1.0	-1.0	-1.0	-1.0	-1.0	-1.0	-1.0	-1.0	0.0	marker	peace	Peace	25	0418
-68511.78	-54608.985	-104705.14499999999	-18541.395	0.0	0.0	0.0	0.0	0.0	0.0	0.0	0.0	0.0	0.0	0.0	0.0	0.0	0.0	146.13793103448276	0.0	0.0415038	-0.037719630000000004	1.01550033	4.10494	-1.9075	-0.09156	3288999.0	1776544968.525211	0.0	1.0	-1.0	-1.0	-1.0	-1.0	-1.0	-1.0	-1.0	-1.0	0.0	marker	peace	Peace	25	0418
-68506.155	-54598.229999999996	-104716.53	-18551.024999999998	0.0	0.0	0.0	0.0	0.0	0.0	0.0	0.0	0.0	0.0	0.0	0.0	0.0	0.0	146.13793103448276	0.0	0.0415038	-0.037719630000000004	1.01550033	4.10494	-1.9075	-0.09156	3289000.0	1776544968.525218	0.0	1.0	-1.0	-1.0	-1.0	-1.0	-1.0	-1.0	-1.0	-1.0	0.0	marker	peace	Peace	25	0418
-68477.4	-54580.59	-104675.4	-18523.62	0.0	0.0	0.0	0.0	0.0	0.0	0.0	0.0	0.0	0.0	0.0	0.0	0.0	0.0	146.13793103448276	0.0	0.0415038	-0.037719630000000004	1.01550033	4.10494	-1.9075	-0.09156	3289001.0	1776544968.525229	0.0	1.0	-1.0	-1.0	-1.0	-1.0	-1.0	-1.0	-1.0	-1.0	0.0	marker	peace	Peace	25	0418
-68481.135	-54569.835	-104668.56	-18513.855	0.0	0.0	0.0	0.0	0.0	0.0	0.0	0.0	0.0	0.0	0.0	0.0	0.0	0.0	146.13793103448276	0.0	0.0415038	-0.037719630000000004	1.01550033	4.10494	-1.9075	-0.09156	3289002.0	1776544968.525236	0.0	1.0	-1.0	-1.0	-1.0	-1.0	-1.0	-1.0	-1.0	-1.0	0.0	marker	peace	Peace	25	0418
-68505.12	-54572.04	-104699.11499999999	-18544.454999999998	0.0	0.0	0.0	0.0	0.0	0.0	0.0	0.0	0.0	0.0	0.0	0.0	0.0	0.0	146.13793103448276	0.0	0.0415038	-0.037719630000000004	1.01550033	4.10494	-1.9075	-0.09156	3289003.0	1776544968.525246	0.0	1.0	-1.0	-1.0	-1.0	-1.0	-1.0	-1.0	-1.0	-1.0	0.0	marker	peace	Peace	25	0418
-68485.5	-54584.325	-104702.44499999999	-18542.745	0.0	0.0	0.0	0.0	0.0	0.0	0.0	0.0	0.0	0.0	0.0	0.0	0.0	0.0	146.13793103448276	0.0	0.0415038	-0.037719630000000004	1.01550033	4.10494	-1.9075	-0.09156	3289004.0	1776544968.525253	0.0	1.0	-1.0	-1.0	-1.0	-1.0	-1.0	-1.0	-1.0	-1.0	0.0	marker	peace	Peace	25	0418
-68488.11	-54592.92	-104709.87	-18534.915	0.0	0.0	0.0	0.0	0.0	0.0	0.0	0.0	0.0	0.0	0.0	0.0	0.0	0.0	146.13793103448276	0.0	0.0415038	-0.037719630000000004	1.01550033	4.10494	-1.9075	-0.09156	3289005.0	1776544968.525262	0.0	1.0	-1.0	-1.0	-1.0	-1.0	-1.0	-1.0	-1.0	-1.0	0.0	marker	peace	Peace	25	0418
-68497.245	-54602.369999999995	-104711.625	-18553.41	0.0	0.0	0.0	0.0	0.0	0.0	0.0	0.0	0.0	0.0	0.0	0.0	0.0	0.0	146.13793103448276	0.0	0.0415038	-0.037719630000000004	1.01550033	4.10494	-1.9075	-0.09156	3289006.0	1776544968.52527	0.0	1.0	-1.0	-1.0	-1.0	-1.0	-1.0	-1.0	-1.0	-1.0	0.0	marker	peace	Peace	25	0418
-68546.52	-54611.055	-104740.29	-18593.594999999998	0.0	0.0	0.0	0.0	0.0	0.0	0.0	0.0	0.0	0.0	0.0	0.0	0.0	0.0	146.13793103448276	0.0	0.05566392	-0.036071685	1.006650255	2.92992	-0.32045999999999997	0.9003399999999999	3289007.0	1776544968.525279	0.0	1.0	-1.0	-1.0	-1.0	-1.0	-1.0	-1.0	-1.0	-1.0	0.0	marker	peace	Peace	25	0418
-68537.43	-54603.72	-104723.14499999999	-18573.704999999998	0.0	0.0	0.0	0.0	0.0	0.0	0.0	0.0	0.0	0.0	0.0	0.0	0.0	0.0	146.13793103448276	0.0	0.05566392	-0.036071685	1.006650255	2.92992	-0.32045999999999997	0.9003399999999999	3289008.0	1776544968.525312	0.0	1.0	-1.0	-1.0	-1.0	-1.0	-1.0	-1.0	-1.0	-1.0	0.0	marker	peace	Peace	25	0418
-68487.795	-54596.34	-104697.0	-18537.165	0.0	0.0	0.0	0.0	0.0	0.0	0.0	0.0	0.0	0.0	0.0	0.0	0.0	0.0	146.13793103448276	0.0	0.05566392	-0.036071685	1.006650255	2.92992	-0.32045999999999997	0.9003399999999999	3289009.0	1776544968.525325	0.0	1.0	-1.0	-1.0	-1.0	-1.0	-1.0	-1.0	-1.0	-1.0	0.0	marker	peace	Peace	25	0418
-68461.02	-54599.939999999995	-104683.23	-18518.895	0.0	0.0	0.0	0.0	0.0	0.0	0.0	0.0	0.0	0.0	0.0	0.0	0.0	0.0	146.13793103448276	0.0	0.05566392	-0.036071685	1.006650255	2.92992	-0.32045999999999997	0.9003399999999999	3289010.0	1776544968.525333	0.0	1.0	-1.0	-1.0	-1.0	-1.0	-1.0	-1.0	-1.0	-1.0	0.0	marker	peace	Peace	25	0418
-68466.33	-54610.29	-104704.965	-18529.29	0.0	0.0	0.0	0.0	0.0	0.0	0.0	0.0	0.0	0.0	0.0	0.0	0.0	0.0	146.13793103448276	0.0	0.05566392	-0.036071685	1.006650255	2.92992	-0.32045999999999997	0.9003399999999999	3289011.0	1776544968.525342	0.0	1.0	-1.0	-1.0	-1.0	-1.0	-1.0	-1.0	-1.0	-1.0	0.0	marker	peace	Peace	25	0418
-68496.3	-54617.579999999994	-104700.015	-18535.77	0.0	0.0	0.0	0.0	0.0	0.0	0.0	0.0	0.0	0.0	0.0	0.0	0.0	0.0	146.13793103448276	0.0	0.05566392	-0.036071685	1.006650255	2.92992	-0.32045999999999997	0.9003399999999999	3289012.0	1776544968.525349	0.0	1.0	-1.0	-1.0	-1.0	-1.0	-1.0	-1.0	-1.0	-1.0	0.0	marker	peace	Peace	25	0418
-68492.06999999999	-54626.4	-104684.31	-18531.54	0.0	0.0	0.0	0.0	0.0	0.0	0.0	0.0	0.0	0.0	0.0	0.0	0.0	0.0	146.13793103448276	0.0	0.05566392	-0.036071685	1.006650255	2.92992	-0.32045999999999997	0.9003399999999999	3289013.0	1776544968.525359	0.0	1.0	-1.0	-1.0	-1.0	-1.0	-1.0	-1.0	-1.0	-1.0	0.0	marker	peace	Peace	25	0418
-68487.66	-54629.909999999996	-104692.36499999999	-18525.465	0.0	0.0	0.0	0.0	0.0	0.0	0.0	0.0	0.0	0.0	0.0	0.0	0.0	0.0	146.13793103448276	0.0	0.05566392	-0.036071685	1.006650255	2.92992	-0.32045999999999997	0.9003399999999999	3289014.0	1776544968.525366	0.0	1.0	-1.0	-1.0	-1.0	-1.0	-1.0	-1.0	-1.0	-1.0	0.0	marker	peace	Peace	25	0418
-68496.165	-54628.064999999995	-104702.76	-18540.09	0.0	0.0	0.0	0.0	0.0	0.0	0.0	0.0	0.0	0.0	0.0	0.0	0.0	0.0	146.13793103448276	0.0	0.05566392	-0.036071685	1.006650255	2.92992	-0.32045999999999997	0.9003399999999999	3289015.0	1776544968.525375	0.0	1.0	-1.0	-1.0	-1.0	-1.0	-1.0	-1.0	-1.0	-1.0	0.0	marker	peace	Peace	25	0418
-68476.995	-54615.284999999996	-104691.375	-18532.755	0.0	0.0	0.0	0.0	0.0	0.0	0.0	0.0	0.0	0.0	0.0	0.0	0.0	0.0	146.13793103448276	0.0	0.05566392	-0.036071685	1.006650255	2.92992	-0.32045999999999997	0.9003399999999999	3289016.0	1776544968.525382	0.0	1.0	-1.0	-1.0	-1.0	-1.0	-1.0	-1.0	-1.0	-1.0	0.0	marker	peace	Peace	25	0418
-68445.98999999999	-54608.715	-104665.545	-18501.704999999998	0.0	0.0	0.0	0.0	0.0	0.0	0.0	0.0	0.0	0.0	0.0	0.0	0.0	0.0	146.13793103448276	0.0	0.06079086	-0.035705475	0.99889881	2.0448399999999998	1.78542	0.41202	3289017.0	1776544968.525392	0.0	1.0	-1.0	-1.0	-1.0	-1.0	-1.0	-1.0	-1.0	-1.0	0.0	marker	peace	Peace	25	0418
-68450.805	-54619.064999999995	-104671.39499999999	-18503.82	0.0	0.0	0.0	0.0	0.0	0.0	0.0	0.0	0.0	0.0	0.0	0.0	0.0	0.0	146.13793103448276	0.0	0.06079086	-0.035705475	0.99889881	2.0448399999999998	1.78542	0.41202	3289018.0	1776544968.525399	0.0	1.0	-1.0	-1.0	-1.0	-1.0	-1.0	-1.0	-1.0	-1.0	0.0	marker	peace	Peace	25	0418
-68472.0	-54645.119999999995	-104691.69	-18535.184999999998	0.0	0.0	0.0	0.0	0.0	0.0	0.0	0.0	0.0	0.0	0.0	0.0	0.0	0.0	146.13793103448276	0.0	0.06079086	-0.035705475	0.99889881	2.0448399999999998	1.78542	0.41202	3289019.0	1776544968.525409	0.0	1.0	-1.0	-1.0	-1.0	-1.0	-1.0	-1.0	-1.0	-1.0	0.0	marker	peace	Peace	25	0418
-68473.485	-54651.329999999994	-104665.05	-18505.62	0.0	0.0	0.0	0.0	0.0	0.0	0.0	0.0	0.0	0.0	0.0	0.0	0.0	0.0	146.13793103448276	0.0	0.06079086	-0.035705475	0.99889881	2.0448399999999998	1.78542	0.41202	3289020.0	1776544968.525416	0.0	1.0	-1.0	-1.0	-1.0	-1.0	-1.0	-1.0	-1.0	-1.0	0.0	marker	peace	Peace	25	0418
-68421.69	-54664.784999999996	-104624.415	-18472.545	0.0	0.0	0.0	0.0	0.0	0.0	0.0	0.0	0.0	0.0	0.0	0.0	0.0	0.0	146.13793103448276	0.0	0.06079086	-0.035705475	0.99889881	2.0448399999999998	1.78542	0.41202	3289021.0	1776544968.525425	0.0	1.0	-1.0	-1.0	-1.0	-1.0	-1.0	-1.0	-1.0	-1.0	0.0	marker	peace	Peace	25	0418
-68513.805	-54672.615	-104679.765	-18547.829999999998	0.0	0.0	0.0	0.0	0.0	0.0	0.0	0.0	0.0	0.0	0.0	0.0	0.0	0.0	146.13793103448276	0.0	0.06079086	-0.035705475	0.99889881	2.0448399999999998	1.78542	0.41202	3289022.0	1776544968.525432	0.0	1.0	-1.0	-1.0	-1.0	-1.0	-1.0	-1.0	-1.0	-1.0	0.0	marker	peace	Peace	25	0418
-68509.845	-54661.095	-104668.065	-18533.655	0.0	0.0	0.0	0.0	0.0	0.0	0.0	0.0	0.0	0.0	0.0	0.0	0.0	0.0	146.13793103448276	0.0	0.06079086	-0.035705475	0.99889881	2.0448399999999998	1.78542	0.41202	3289023.0	1776544968.525442	0.0	1.0	-1.0	-1.0	-1.0	-1.0	-1.0	-1.0	-1.0	-1.0	0.0	marker	peace	Peace	25	0418
-68478.61499999999	-54652.68	-104666.985	-18517.905	0.0	0.0	0.0	0.0	0.0	0.0	0.0	0.0	0.0	0.0	0.0	0.0	0.0	0.0	146.13793103448276	0.0	0.06079086	-0.035705475	0.99889881	2.0448399999999998	1.78542	0.41202	3289024.0	1776544968.525449	0.0	1.0	-1.0	-1.0	-1.0	-1.0	-1.0	-1.0	-1.0	-1.0	0.0	marker	peace	Peace	25	0418
-68515.785	-54654.479999999996	-104757.56999999999	-18581.715	0.0	0.0	0.0	0.0	0.0	0.0	0.0	0.0	0.0	0.0	0.0	0.0	0.0	0.0	146.13793103448276	0.0	0.06079086	-0.035705475	0.99889881	2.0448399999999998	1.78542	0.41202	3289025.0	1776544968.525459	0.0	1.0	-1.0	-1.0	-1.0	-1.0	-1.0	-1.0	-1.0	-1.0	0.0	marker	peace	Peace	25	0418
-68503.86	-54655.155	-104759.90999999999	-18592.29	0.0	0.0	0.0	0.0	0.0	0.0	0.0	0.0	0.0	0.0	0.0	0.0	0.0	0.0	146.13793103448276	0.0	0.06079086	-0.035705475	0.99889881	2.0448399999999998	1.78542	0.41202	3289026.0	1776544968.525466	0.0	1.0	-1.0	-1.0	-1.0	-1.0	-1.0	-1.0	-1.0	-1.0	0.0	marker	peace	Peace	25	0418
-68487.705	-54657.765	-104723.50499999999	-18567.045	0.0	0.0	0.0	0.0	0.0	0.0	0.0	0.0	0.0	0.0	0.0	0.0	0.0	0.0	146.13793103448276	0.0	0.059631195	-0.036804105000000004	0.99523671	5.7988	3.31142	0.32045999999999997	3289027.0	1776544968.525475	0.0	1.0	-1.0	-1.0	-1.0	-1.0	-1.0	-1.0	-1.0	-1.0	0.0	marker	peace	Peace	25	0418
-68492.16	-54668.7	-104710.31999999999	-18540.135	0.0	0.0	0.0	0.0	0.0	0.0	0.0	0.0	0.0	0.0	0.0	0.0	0.0	0.0	146.13793103448276	0.0	0.059631195	-0.036804105000000004	0.99523671	5.7988	3.31142	0.32045999999999997	3289028.0	1776544968.525505	0.0	1.0	-1.0	-1.0	-1.0	-1.0	-1.0	-1.0	-1.0	-1.0	0.0	marker	peace	Peace	25	0418
-68495.94	-54678.15	-104701.545	-18536.895	0.0	0.0	0.0	0.0	0.0	0.0	0.0	0.0	0.0	0.0	0.0	0.0	0.0	0.0	146.13793103448276	0.0	0.059631195	-0.036804105000000004	0.99523671	5.7988	3.31142	0.32045999999999997	3289029.0	1776544968.525516	0.0	1.0	-1.0	-1.0	-1.0	-1.0	-1.0	-1.0	-1.0	-1.0	0.0	marker	peace	Peace	25	0418
-68487.255	-54676.53	-104678.90999999999	-18521.774999999998	0.0	0.0	0.0	0.0	0.0	0.0	0.0	0.0	0.0	0.0	0.0	0.0	0.0	0.0	146.13793103448276	0.0	0.059631195	-0.036804105000000004	0.99523671	5.7988	3.31142	0.32045999999999997	3289030.0	1776544968.525523	0.0	1.0	-1.0	-1.0	-1.0	-1.0	-1.0	-1.0	-1.0	-1.0	0.0	marker	peace	Peace	25	0418
-68496.48	-54683.369999999995	-104692.95	-18527.625	0.0	0.0	0.0	0.0	0.0	0.0	0.0	0.0	0.0	0.0	0.0	0.0	0.0	0.0	146.13793103448276	0.0	0.059631195	-0.036804105000000004	0.99523671	5.7988	3.31142	0.32045999999999997	3289031.0	1776544968.525533	0.0	1.0	-1.0	-1.0	-1.0	-1.0	-1.0	-1.0	-1.0	-1.0	0.0	marker	peace	Peace	25	0418
-68486.895	-54680.174999999996	-104687.37	-18520.11	0.0	0.0	0.0	0.0	0.0	0.0	0.0	0.0	0.0	0.0	0.0	0.0	0.0	0.0	146.13793103448276	0.0	0.059631195	-0.036804105000000004	0.99523671	5.7988	3.31142	0.32045999999999997	3289032.0	1776544968.52554	0.0	1.0	-1.0	-1.0	-1.0	-1.0	-1.0	-1.0	-1.0	-1.0	0.0	marker	peace	Peace	25	0418
-68511.78	-54666.945	-104692.68	-18529.155	0.0	0.0	0.0	0.0	0.0	0.0	0.0	0.0	0.0	0.0	0.0	0.0	0.0	0.0	146.13793103448276	0.0	0.059631195	-0.036804105000000004	0.99523671	5.7988	3.31142	0.32045999999999997	3289033.0	1776544968.525549	0.0	1.0	-1.0	-1.0	-1.0	-1.0	-1.0	-1.0	-1.0	-1.0	0.0	marker	peace	Peace	25	0418
-68446.8	-54659.924999999996	-104654.34	-18498.42	0.0	0.0	0.0	0.0	0.0	0.0	0.0	0.0	0.0	0.0	0.0	0.0	0.0	0.0	146.13793103448276	0.0	0.059631195	-0.036804105000000004	0.99523671	5.7988	3.31142	0.32045999999999997	3289034.0	1776544968.525556	0.0	1.0	-1.0	-1.0	-1.0	-1.0	-1.0	-1.0	-1.0	-1.0	0.0	marker	peace	Peace	25	0418
-68446.26	-54660.6	-104672.79	-18526.59	0.0	0.0	0.0	0.0	0.0	0.0	0.0	0.0	0.0	0.0	0.0	0.0	0.0	0.0	146.13793103448276	0.0	0.059631195	-0.036804105000000004	0.99523671	5.7988	3.31142	0.32045999999999997	3289035.0	1776544968.525565	0.0	1.0	-1.0	-1.0	-1.0	-1.0	-1.0	-1.0	-1.0	-1.0	0.0	marker	peace	Peace	25	0418
-68532.795	-54664.335	-104761.62	-18584.01	0.0	0.0	0.0	0.0	0.0	0.0	0.0	0.0	0.0	0.0	0.0	0.0	0.0	0.0	146.13793103448276	0.0	0.059631195	-0.036804105000000004	0.99523671	5.7988	3.31142	0.32045999999999997	3289036.0	1776544968.525572	0.0	1.0	-1.0	-1.0	-1.0	-1.0	-1.0	-1.0	-1.0	-1.0	0.0	marker	peace	Peace	25	0418
-68497.38	-54667.439999999995	-104720.625	-18541.44	0.0	0.0	0.0	0.0	0.0	0.0	0.0	0.0	0.0	0.0	0.0	0.0	0.0	0.0	146.13793103448276	0.0	0.05749497	-0.035583405	0.994809465	10.056339999999999	5.0358	1.95328	3289037.0	1776544968.525582	0.0	1.0	-1.0	-1.0	-1.0	-1.0	-1.0	-1.0	-1.0	-1.0	0.0	marker	peace	Peace	25	0418
-68433.255	-54668.97	-104662.89	-18498.329999999998	0.0	0.0	0.0	0.0	0.0	0.0	0.0	0.0	0.0	0.0	0.0	0.0	0.0	0.0	146.13793103448276	0.0	0.05749497	-0.035583405	0.994809465	10.056339999999999	5.0358	1.95328	3289038.0	1776544968.525589	0.0	1.0	-1.0	-1.0	-1.0	-1.0	-1.0	-1.0	-1.0	-1.0	0.0	marker	peace	Peace	25	0418
-68465.385	-54671.715	-104684.58	-18516.195	0.0	0.0	0.0	0.0	0.0	0.0	0.0	0.0	0.0	0.0	0.0	0.0	0.0	0.0	146.13793103448276	0.0	0.05749497	-0.035583405	0.994809465	10.056339999999999	5.0358	1.95328	3289039.0	1776544968.525598	0.0	1.0	-1.0	-1.0	-1.0	-1.0	-1.0	-1.0	-1.0	-1.0	0.0	marker	peace	Peace	25	0418
-68466.735	-54678.915	-104657.805	-18490.364999999998	0.0	0.0	0.0	0.0	0.0	0.0	0.0	0.0	0.0	0.0	0.0	0.0	0.0	0.0	146.13793103448276	0.0	0.05749497	-0.035583405	0.994809465	10.056339999999999	5.0358	1.95328	3289040.0	1776544968.525605	0.0	1.0	-1.0	-1.0	-1.0	-1.0	-1.0	-1.0	-1.0	-1.0	0.0	marker	peace	Peace	25	0418
-68466.735	-54678.915	-104657.805	-18490.364999999998	0.0	0.0	0.0	0.0	0.0	0.0	0.0	0.0	0.0	0.0	0.0	0.0	0.0	0.0	146.13793103448276	0.0	0.05749497	-0.035583405	0.994809465	10.056339999999999	5.0358	1.95328	3289041.0	1776544968.525614	0.0	1.0	-1.0	-1.0	-1.0	-1.0	-1.0	-1.0	-1.0	-1.0	0.0	marker	peace	Peace	25	0418
-68466.735	-54678.915	-104657.805	-18490.364999999998	0.0	0.0	0.0	0.0	0.0	0.0	0.0	0.0	0.0	0.0	0.0	0.0	0.0	0.0	146.13793103448276	0.0	0.05749497	-0.035583405	0.994809465	10.056339999999999	5.0358	1.95328	3289042.0	1776544968.525621	0.0	1.0	-1.0	-1.0	-1.0	-1.0	-1.0	-1.0	-1.0	-1.0	0.0	marker	peace	Peace	25	0418
