ch_0	ch_1	ch_2	ch_3	ch_4	ch_5	ch_6	ch_7	ch_8	ch_9	ch_10	ch_11	ch_12	ch_13	ch_14	ch_15	ch_16	ch_17	ch_18	ch_19	ch_20	ch_21	ch_22	ch_23	ch_24	ch_25	ch_26	timestamp	marker	ch_29	ch_30	ch_31	ch_32	ch_33	ch_34	ch_35	ch_36	ch_37	ch_38	MarkerColumn	GestureLabel	CueLabel	SampleNumber	CollectionDate
-68701.635	-55310.49	-104791.72499999999	-18560.475	0.0	0.0	0.0	0.0	0.0	0.0	0.0	0.0	0.0	0.0	0.0	0.0	0.0	0.0	145.86206896551727	0.0	0.031555095	-0.045471075	1.01659896	2.6857599999999997	-0.15259999999999999	-0.51884	3299005.0	1776544988.508861	5.0	1.0	-1.0	-1.0	-1.0	-1.0	-1.0	-1.0	-1.0	-1.0	0.0	marker	peace	Peace	27	0418
-68630.355	-55315.665	-104789.15999999999	-18512.505	0.0	0.0	0.0	0.0	0.0	0.0	0.0	0.0	0.0	0.0	0.0	0.0	0.0	0.0	145.86206896551727	0.0	0.031555095	-0.045471075	1.01659896	2.6857599999999997	-0.15259999999999999	-0.51884	3299006.0	1776544988.508877	0.0	1.0	-1.0	-1.0	-1.0	-1.0	-1.0	-1.0	-1.0	-1.0	0.0	marker	peace	Peace	27	0418
-68574.59999999999	-55316.07	-104813.01	-18476.954999999998	0.0	0.0	0.0	0.0	0.0	0.0	0.0	0.0	0.0	0.0	0.0	0.0	0.0	0.0	145.86206896551727	0.0	0.031555095	-0.045471075	1.01659896	2.6857599999999997	-0.15259999999999999	-0.51884	3299007.0	1776544988.512946	0.0	1.0	-1.0	-1.0	-1.0	-1.0	-1.0	-1.0	-1.0	-1.0	0.0	marker	peace	Peace	27	0418
-68616.765	-55322.865	-104870.655	-18535.14	0.0	0.0	0.0	0.0	0.0	0.0	0.0	0.0	0.0	0.0	0.0	0.0	0.0	0.0	145.86206896551727	0.0	0.031555095	-0.045471075	1.01659896	2.6857599999999997	-0.15259999999999999	-0.51884	3299008.0	1776544988.512962	0.0	1.0	-1.0	-1.0	-1.0	-1.0	-1.0	-1.0	-1.0	-1.0	0.0	marker	peace	Peace	27	0418
-68685.345	-55324.799999999996	-104897.745	-18592.11	0.0	0.0	0.0	0.0	0.0	0.0	0.0	0.0	0.0	0.0	0.0	0.0	0.0	0.0	145.86206896551727	0.0	0.031555095	-0.045471075	1.01659896	2.6857599999999997	-0.15259999999999999	-0.51884	3299009.0	1776544988.517036	0.0	1.0	-1.0	-1.0	-1.0	-1.0	-1.0	-1.0	-1.0	-1.0	0.0	marker	peace	Peace	27	0418
-68672.11499999999	-55324.845	-104840.415	-18571.635	0.0	0.0	0.0	0.0	0.0	0.0	0.0	0.0	0.0	0.0	0.0	0.0	0.0	0.0	145.86206896551727	0.0	0.031555095	-0.045471075	1.01659896	2.6857599999999997	-0.15259999999999999	-0.51884	3299010.0	1776544988.517052	0.0	1.0	-1.0	-1.0	-1.0	-1.0	-1.0	-1.0	-1.0	-1.0	0.0	marker	peace	Peace	27	0418
-68639.715	-55318.814999999995	-104800.995	-18552.51	0.0	0.0	0.0	0.0	0.0	0.0	0.0	0.0	0.0	0.0	0.0	0.0	0.0	0.0	145.86206896551727	0.0	0.031555095	-0.045471075	1.01659896	2.6857599999999997	-0.15259999999999999	-0.51884	3299011.0	1776544988.522334	0.0	1.0	-1.0	-1.0	-1.0	-1.0	-1.0	-1.0	-1.0	-1.0	0.0	marker	peace	Peace	27	0418
-68750.37	-55324.799999999996	-104894.37	-18628.469999999998	0.0	0.0	0.0	0.0	0.0	0.0	0.0	0.0	0.0	0.0	0.0	0.0	0.0	0.0	145.86206896551727	0.0	0.031555095	-0.045471075	1.01659896	2.6857599999999997	-0.15259999999999999	-0.51884	3299012.0	1776544988.52235	0.0	1.0	-1.0	-1.0	-1.0	-1.0	-1.0	-1.0	-1.0	-1.0	0.0	marker	peace	Peace	27	0418
-68852.205	-55340.595	-104989.00499999999	-18695.16	0.0	0.0	0.0	0.0	0.0	0.0	0.0	0.0	0.0	0.0	0.0	0.0	0.0	0.0	145.86206896551727	0.0	0.03454581	-0.043762095	1.011044775	1.32762	0.62566	0.42728	3299013.0	1776544988.524958	0.0	1.0	-1.0	-1.0	-1.0	-1.0	-1.0	-1.0	-1.0	-1.0	0.0	marker	peace	Peace	27	0418
-68758.065	-55338.525	-104914.98	-18643.59	0.0	0.0	0.0	0.0	0.0	0.0	0.0	0.0	0.0	0.0	0.0	0.0	0.0	0.0	145.86206896551727	0.0	0.03454581	-0.043762095	1.011044775	1.32762	0.62566	0.42728	3299014.0	1776544988.524974	0.0	1.0	-1.0	-1.0	-1.0	-1.0	-1.0	-1.0	-1.0	-1.0	0.0	marker	peace	Peace	27	0418
-68679.63	-55343.97	-104839.83	-18590.895	0.0	0.0	0.0	0.0	0.0	0.0	0.0	0.0	0.0	0.0	0.0	0.0	0.0	0.0	145.86206896551727	0.0	0.03454581	-0.043762095	1.011044775	1.32762	0.62566	0.42728	3299015.0	1776544988.530828	0.0	1.0	-1.0	-1.0	-1.0	-1.0	-1.0	-1.0	-1.0	-1.0	0.0	marker	peace	Peace	27	0418
-68693.67	-55355.085	-104851.845	-18610.785	0.0	0.0	0.0	0.0	0.0	0.0	0.0	0.0	0.0	0.0	0.0	0.0	0.0	0.0	145.86206896551727	0.0	0.03454581	-0.043762095	1.011044775	1.32762	0.62566	0.42728	3299016.0	1776544988.530845	0.0	1.0	-1.0	-1.0	-1.0	-1.0	-1.0	-1.0	-1.0	-1.0	0.0	marker	peace	Peace	27	0418
-68709.23999999999	-55355.939999999995	-104876.055	-18610.469999999998	0.0	0.0	0.0	0.0	0.0	0.0	0.0	0.0	0.0	0.0	0.0	0.0	0.0	0.0	145.86206896551727	0.0	0.03454581	-0.043762095	1.011044775	1.32762	0.62566	0.42728	3299017.0	1776544988.533005	0.0	1.0	-1.0	-1.0	-1.0	-1.0	-1.0	-1.0	-1.0	-1.0	0.0	marker	peace	Peace	27	0418
-68660.145	-55352.88	-104840.055	-18554.085	0.0	0.0	0.0	0.0	0.0	0.0	0.0	0.0	0.0	0.0	0.0	0.0	0.0	0.0	145.86206896551727	0.0	0.03454581	-0.043762095	1.011044775	1.32762	0.62566	0.42728	3299018.0	1776544988.533021	0.0	1.0	-1.0	-1.0	-1.0	-1.0	-1.0	-1.0	-1.0	-1.0	0.0	marker	peace	Peace	27	0418
-68719.36499999999	-55342.845	-104899.635	-18612.765	0.0	0.0	0.0	0.0	0.0	0.0	0.0	0.0	0.0	0.0	0.0	0.0	0.0	0.0	145.86206896551727	0.0	0.03454581	-0.043762095	1.011044775	1.32762	0.62566	0.42728	3299019.0	1776544988.537059	0.0	1.0	-1.0	-1.0	-1.0	-1.0	-1.0	-1.0	-1.0	-1.0	0.0	marker	peace	Peace	27	0418
-68729.67	-55334.564999999995	-104903.86499999999	-18605.745	0.0	0.0	0.0	0.0	0.0	0.0	0.0	0.0	0.0	0.0	0.0	0.0	0.0	0.0	145.86206896551727	0.0	0.03454581	-0.043762095	1.011044775	1.32762	0.62566	0.42728	3299020.0	1776544988.537076	0.0	1.0	-1.0	-1.0	-1.0	-1.0	-1.0	-1.0	-1.0	-1.0	0.0	marker	peace	Peace	27	0418
-68719.23	-55330.11	-104890.36499999999	-18606.645	0.0	0.0	0.0	0.0	0.0	0.0	0.0	0.0	0.0	0.0	0.0	0.0	0.0	0.0	145.86206896551727	0.0	0.03454581	-0.043762095	1.011044775	1.32762	0.62566	0.42728	3299021.0	1776544988.541069	0.0	1.0	-1.0	-1.0	-1.0	-1.0	-1.0	-1.0	-1.0	-1.0	0.0	marker	peace	Peace	27	0418
-68693.48999999999	-55329.435	-104852.97	-18594.63	0.0	0.0	0.0	0.0	0.0	0.0	0.0	0.0	0.0	0.0	0.0	0.0	0.0	0.0	145.86206896551727	0.0	0.03454581	-0.043762095	1.011044775	1.32762	0.62566	0.42728	3299022.0	1776544988.541084	0.0	1.0	-1.0	-1.0	-1.0	-1.0	-1.0	-1.0	-1.0	-1.0	0.0	marker	peace	Peace	27	0418
-68665.095	-55329.03	-104848.155	-18577.395	0.0	0.0	0.0	0.0	0.0	0.0	0.0	0.0	0.0	0.0	0.0	0.0	0.0	0.0	145.86206896551727	0.0	0.033386145	-0.048828	1.01098374	1.63282	0.62566	0.09156	3299023.0	1776544988.54506	0.0	1.0	-1.0	-1.0	-1.0	-1.0	-1.0	-1.0	-1.0	-1.0	0.0	marker	peace	Peace	27	0418
-68651.235	-55325.79	-104796.26999999999	-18549.63	0.0	0.0	0.0	0.0	0.0	0.0	0.0	0.0	0.0	0.0	0.0	0.0	0.0	0.0	145.86206896551727	0.0	0.033386145	-0.048828	1.01098374	1.63282	0.62566	0.09156	3299024.0	1776544988.545076	0.0	1.0	-1.0	-1.0	-1.0	-1.0	-1.0	-1.0	-1.0	-1.0	0.0	marker	peace	Peace	27	0418
-68692.275	-55322.865	-104800.815	-18584.235	0.0	0.0	0.0	0.0	0.0	0.0	0.0	0.0	0.0	0.0	0.0	0.0	0.0	0.0	145.86206896551727	0.0	0.033386145	-0.048828	1.01098374	1.63282	0.62566	0.09156	3299025.0	1776544988.549133	0.0	1.0	-1.0	-1.0	-1.0	-1.0	-1.0	-1.0	-1.0	-1.0	0.0	marker	peace	Peace	27	0418
-68715.0	-55316.34	-104878.62	-18646.065	0.0	0.0	0.0	0.0	0.0	0.0	0.0	0.0	0.0	0.0	0.0	0.0	0.0	0.0	145.86206896551727	0.0	0.033386145	-0.048828	1.01098374	1.63282	0.62566	0.09156	3299026.0	1776544988.549148	0.0	1.0	-1.0	-1.0	-1.0	-1.0	-1.0	-1.0	-1.0	-1.0	0.0	marker	peace	Peace	27	0418
-68724.18	-55306.665	-104904.405	-18622.98	0.0	0.0	0.0	0.0	0.0	0.0	0.0	0.0	0.0	0.0	0.0	0.0	0.0	0.0	145.86206896551727	0.0	0.033386145	-0.048828	1.01098374	1.63282	0.62566	0.09156	3299027.0	1776544988.557057	0.0	1.0	-1.0	-1.0	-1.0	-1.0	-1.0	-1.0	-1.0	-1.0	0.0	marker	peace	Peace	27	0418
-68705.685	-55299.555	-104839.83	-18548.505	0.0	0.0	0.0	0.0	0.0	0.0	0.0	0.0	0.0	0.0	0.0	0.0	0.0	0.0	145.86206896551727	0.0	0.033386145	-0.048828	1.01098374	1.63282	0.62566	0.09156	3299028.0	1776544988.557072	0.0	1.0	-1.0	-1.0	-1.0	-1.0	-1.0	-1.0	-1.0	-1.0	0.0	marker	peace	Peace	27	0418
-68668.2	-55289.295	-104834.385	-18571.364999999998	0.0	0.0	0.0	0.0	0.0	0.0	0.0	0.0	0.0	0.0	0.0	0.0	0.0	0.0	145.86206896551727	0.0	0.033386145	-0.048828	1.01098374	1.63282	0.62566	0.09156	3299029.0	1776544988.557091	0.0	1.0	-1.0	-1.0	-1.0	-1.0	-1.0	-1.0	-1.0	-1.0	0.0	marker	peace	Peace	27	0418
-68578.69499999999	-55273.905	-104816.295	-18528.165	0.0	0.0	0.0	0.0	0.0	0.0	0.0	0.0	0.0	0.0	0.0	0.0	0.0	0.0	145.86206896551727	0.0	0.033386145	-0.048828	1.01098374	1.63282	0.62566	0.09156	3299030.0	1776544988.557104	0.0	1.0	-1.0	-1.0	-1.0	-1.0	-1.0	-1.0	-1.0	-1.0	0.0	marker	peace	Peace	27	0418
-68552.145	-55265.805	-104789.87999999999	-18500.805	0.0	0.0	0.0	0.0	0.0	0.0	0.0	0.0	0.0	0.0	0.0	0.0	0.0	0.0	145.86206896551727	0.0	0.033386145	-0.048828	1.01098374	1.63282	0.62566	0.09156	3299031.0	1776544988.561142	0.0	1.0	-1.0	-1.0	-1.0	-1.0	-1.0	-1.0	-1.0	-1.0	0.0	marker	peace	Peace	27	0418
-68657.44499999999	-55271.43	-104830.92	-18580.005	0.0	0.0	0.0	0.0	0.0	0.0	0.0	0.0	0.0	0.0	0.0	0.0	0.0	0.0	145.86206896551727	0.0	0.033386145	-0.048828	1.01098374	1.63282	0.62566	0.09156	3299032.0	1776544988.561146	0.0	1.0	-1.0	-1.0	-1.0	-1.0	-1.0	-1.0	-1.0	-1.0	0.0	marker	peace	Peace	27	0418
-68721.165	-55270.034999999996	-104860.08	-18605.34	0.0	0.0	0.0	0.0	0.0	0.0	0.0	0.0	0.0	0.0	0.0	0.0	0.0	0.0	145.86206896551727	0.0	0.02990715	-0.05212389	1.018002765	2.45686	0.50358	-0.59514	3299033.0	1776544988.565078	0.0	1.0	-1.0	-1.0	-1.0	-1.0	-1.0	-1.0	-1.0	-1.0	0.0	marker	peace	Peace	27	0418
-68726.25	-55262.25	-104863.76999999999	-18572.625	0.0	0.0	0.0	0.0	0.0	0.0	0.0	0.0	0.0	0.0	0.0	0.0	0.0	0.0	145.86206896551727	0.0	0.02990715	-0.05212389	1.018002765	2.45686	0.50358	-0.59514	3299034.0	1776544988.565093	0.0	1.0	-1.0	-1.0	-1.0	-1.0	-1.0	-1.0	-1.0	-1.0	0.0	marker	peace	Peace	27	0418
-68693.895	-55257.795	-104865.12	-18573.12	0.0	0.0	0.0	0.0	0.0	0.0	0.0	0.0	0.0	0.0	0.0	0.0	0.0	0.0	145.86206896551727	0.0	0.02990715	-0.05212389	1.018002765	2.45686	0.50358	-0.59514	3299035.0	1776544988.569115	0.0	1.0	-1.0	-1.0	-1.0	-1.0	-1.0	-1.0	-1.0	-1.0	0.0	marker	peace	Peace	27	0418
-68702.4	-55262.655	-104884.69499999999	-18604.215	0.0	0.0	0.0	0.0	0.0	0.0	0.0	0.0	0.0	0.0	0.0	0.0	0.0	0.0	145.86206896551727	0.0	0.02990715	-0.05212389	1.018002765	2.45686	0.50358	-0.59514	3299036.0	1776544988.56913	0.0	1.0	-1.0	-1.0	-1.0	-1.0	-1.0	-1.0	-1.0	-1.0	0.0	marker	peace	Peace	27	0418
-68737.815	-55276.155	-104910.705	-18632.43	0.0	0.0	0.0	0.0	0.0	0.0	0.0	0.0	0.0	0.0	0.0	0.0	0.0	0.0	145.86206896551727	0.0	0.02990715	-0.05212389	1.018002765	2.45686	0.50358	-0.59514	3299037.0	1776544988.573017	0.0	1.0	-1.0	-1.0	-1.0	-1.0	-1.0	-1.0	-1.0	-1.0	0.0	marker	peace	Peace	27	0418
-68687.81999999999	-55274.445	-104843.205	-18595.395	0.0	0.0	0.0	0.0	0.0	0.0	0.0	0.0	0.0	0.0	0.0	0.0	0.0	0.0	145.86206896551727	0.0	0.02990715	-0.05212389	1.018002765	2.45686	0.50358	-0.59514	3299038.0	1776544988.573022	0.0	1.0	-1.0	-1.0	-1.0	-1.0	-1.0	-1.0	-1.0	-1.0	0.0	marker	peace	Peace	27	0418
-68661.315	-55275.659999999996	-104777.50499999999	-18566.73	0.0	0.0	0.0	0.0	0.0	0.0	0.0	0.0	0.0	0.0	0.0	0.0	0.0	0.0	145.86206896551727	0.0	0.02990715	-0.05212389	1.018002765	2.45686	0.50358	-0.59514	3299039.0	1776544988.577119	0.0	1.0	-1.0	-1.0	-1.0	-1.0	-1.0	-1.0	-1.0	-1.0	0.0	marker	peace	Peace	27	0418
-68703.255	-55271.204999999994	-104832.26999999999	-18573.93	0.0	0.0	0.0	0.0	0.0	0.0	0.0	0.0	0.0	0.0	0.0	0.0	0.0	0.0	145.86206896551727	0.0	0.02990715	-0.05212389	1.018002765	2.45686	0.50358	-0.59514	3299040.0	1776544988.577134	0.0	1.0	-1.0	-1.0	-1.0	-1.0	-1.0	-1.0	-1.0	-1.0	0.0	marker	peace	Peace	27	0418
-68746.005	-55270.53	-104949.765	-18634.364999999998	0.0	0.0	0.0	0.0	0.0	0.0	0.0	0.0	0.0	0.0	0.0	0.0	0.0	0.0	145.86206896551727	0.0	0.02990715	-0.05212389	1.018002765	2.45686	0.50358	-0.59514	3299041.0	1776544988.581086	0.0	1.0	-1.0	-1.0	-1.0	-1.0	-1.0	-1.0	-1.0	-1.0	0.0	marker	peace	Peace	27	0418
-68721.165	-55260.945	-104950.03499999999	-18634.545	0.0	0.0	0.0	0.0	0.0	0.0	0.0	0.0	0.0	0.0	0.0	0.0	0.0	0.0	145.86206896551727	0.0	0.02990715	-0.05212389	1.018002765	2.45686	0.50358	-0.59514	3299042.0	1776544988.581101	0.0	1.0	-1.0	-1.0	-1.0	-1.0	-1.0	-1.0	-1.0	-1.0	0.0	marker	peace	Peace	27	0418
-68723.28	-55253.07	-104942.79	-18647.055	0.0	0.0	0.0	0.0	0.0	0.0	0.0	0.0	0.0	0.0	0.0	0.0	0.0	0.0	145.86206896551727	0.0	0.031433025	-0.05480943	1.017758625	3.5860999999999996	0.4578	-1.55652	3299043.0	1776544988.588647	0.0	1.0	-1.0	-1.0	-1.0	-1.0	-1.0	-1.0	-1.0	-1.0	0.0	marker	peace	Peace	27	0418
-68741.64	-55254.42	-104897.295	-18623.925	0.0	0.0	0.0	0.0	0.0	0.0	0.0	0.0	0.0	0.0	0.0	0.0	0.0	0.0	145.86206896551727	0.0	0.031433025	-0.05480943	1.017758625	3.5860999999999996	0.4578	-1.55652	3299044.0	1776544988.588658	0.0	1.0	-1.0	-1.0	-1.0	-1.0	-1.0	-1.0	-1.0	-1.0	0.0	marker	peace	Peace	27	0418
-68631.48	-55257.435	-104796.09	-18551.969999999998	0.0	0.0	0.0	0.0	0.0	0.0	0.0	0.0	0.0	0.0	0.0	0.0	0.0	0.0	145.86206896551727	0.0	0.031433025	-0.05480943	1.017758625	3.5860999999999996	0.4578	-1.55652	3299045.0	1776544988.589199	0.0	1.0	-1.0	-1.0	-1.0	-1.0	-1.0	-1.0	-1.0	-1.0	0.0	marker	peace	Peace	27	0418
-68614.73999999999	-55270.89	-104816.79	-18564.03	0.0	0.0	0.0	0.0	0.0	0.0	0.0	0.0	0.0	0.0	0.0	0.0	0.0	0.0	145.86206896551727	0.0	0.031433025	-0.05480943	1.017758625	3.5860999999999996	0.4578	-1.55652	3299046.0	1776544988.589206	0.0	1.0	-1.0	-1.0	-1.0	-1.0	-1.0	-1.0	-1.0	-1.0	0.0	marker	peace	Peace	27	0418
-68720.805	-55289.295	-104882.44499999999	-18593.505	0.0	0.0	0.0	0.0	0.0	0.0	0.0	0.0	0.0	0.0	0.0	0.0	0.0	0.0	145.86206896551727	0.0	0.031433025	-0.05480943	1.017758625	3.5860999999999996	0.4578	-1.55652	3299047.0	1776544988.592913	0.0	1.0	-1.0	-1.0	-1.0	-1.0	-1.0	-1.0	-1.0	-1.0	0.0	marker	peace	Peace	27	0418
-68743.62	-55309.5	-104903.595	-18605.565	0.0	0.0	0.0	0.0	0.0	0.0	0.0	0.0	0.0	0.0	0.0	0.0	0.0	0.0	145.86206896551727	0.0	0.031433025	-0.05480943	1.017758625	3.5860999999999996	0.4578	-1.55652	3299048.0	1776544988.592941	0.0	1.0	-1.0	-1.0	-1.0	-1.0	-1.0	-1.0	-1.0	-1.0	0.0	marker	peace	Peace	27	0418
-68694.705	-55306.665	-104868.18	-18582.03	0.0	0.0	0.0	0.0	0.0	0.0	0.0	0.0	0.0	0.0	0.0	0.0	0.0	0.0	145.86206896551727	0.0	0.031433025	-0.05480943	1.017758625	3.5860999999999996	0.4578	-1.55652	3299049.0	1776544988.596904	0.0	1.0	-1.0	-1.0	-1.0	-1.0	-1.0	-1.0	-1.0	-1.0	0.0	marker	peace	Peace	27	0418
-68631.61499999999	-55295.64	-104823.62999999999	-18540.0	0.0	0.0	0.0	0.0	0.0	0.0	0.0	0.0	0.0	0.0	0.0	0.0	0.0	0.0	145.86206896551727	0.0	0.031433025	-0.05480943	1.017758625	3.5860999999999996	0.4578	-1.55652	3299050.0	1776544988.596921	0.0	1.0	-1.0	-1.0	-1.0	-1.0	-1.0	-1.0	-1.0	-1.0	0.0	marker	peace	Peace	27	0418
-68642.235	-55293.704999999994	-104849.50499999999	-18565.605	0.0	0.0	0.0	0.0	0.0	0.0	0.0	0.0	0.0	0.0	0.0	0.0	0.0	0.0	145.86206896551727	0.0	0.031433025	-0.05480943	1.017758625	3.5860999999999996	0.4578	-1.55652	3299051.0	1776544988.601686	0.0	1.0	-1.0	-1.0	-1.0	-1.0	-1.0	-1.0	-1.0	-1.0	0.0	marker	peace	Peace	27	0418
-68635.215	-55296.09	-104829.705	-18555.93	0.0	0.0	0.0	0.0	0.0	0.0	0.0	0.0	0.0	0.0	0.0	0.0	0.0	0.0	145.86206896551727	0.0	0.031433025	-0.05480943	1.017758625	3.5860999999999996	0.4578	-1.55652	3299052.0	1776544988.601702	0.0	1.0	-1.0	-1.0	-1.0	-1.0	-1.0	-1.0	-1.0	-1.0	0.0	marker	peace	Peace	27	0418
-68624.145	-55295.369999999995	-104810.67	-18534.555	0.0	0.0	0.0	0.0	0.0	0.0	0.0	0.0	0.0	0.0	0.0	0.0	0.0	0.0	145.86206896551727	0.0	0.03552237	-0.05346666	1.014584805	3.17408	0.24416	-0.9919	3299053.0	1776544988.607067	0.0	1.0	-1.0	-1.0	-1.0	-1.0	-1.0	-1.0	-1.0	-1.0	0.0	marker	peace	Peace	27	0418
-68667.705	-55293.615	-104849.01	-18578.25	0.0	0.0	0.0	0.0	0.0	0.0	0.0	0.0	0.0	0.0	0.0	0.0	0.0	0.0	145.86206896551727	0.0	0.03552237	-0.05346666	1.014584805	3.17408	0.24416	-0.9919	3299054.0	1776544988.607083	0.0	1.0	-1.0	-1.0	-1.0	-1.0	-1.0	-1.0	-1.0	-1.0	0.0	marker	peace	Peace	27	0418
-68729.94	-55293.255	-104896.03499999999	-18636.704999999998	0.0	0.0	0.0	0.0	0.0	0.0	0.0	0.0	0.0	0.0	0.0	0.0	0.0	0.0	145.86206896551727	0.0	0.03552237	-0.05346666	1.014584805	3.17408	0.24416	-0.9919	3299055.0	1776544988.609967	0.0	1.0	-1.0	-1.0	-1.0	-1.0	-1.0	-1.0	-1.0	-1.0	0.0	marker	peace	Peace	27	0418
-68713.33499999999	-55262.025	-104840.86499999999	-18612.045	0.0	0.0	0.0	0.0	0.0	0.0	0.0	0.0	0.0	0.0	0.0	0.0	0.0	0.0	145.86206896551727	0.0	0.03552237	-0.05346666	1.014584805	3.17408	0.24416	-0.9919	3299056.0	1776544988.609985	0.0	1.0	-1.0	-1.0	-1.0	-1.0	-1.0	-1.0	-1.0	-1.0	0.0	marker	peace	Peace	27	0418
-68682.19499999999	-55197.54	-104777.955	-18569.835	0.0	0.0	0.0	0.0	0.0	0.0	0.0	0.0	0.0	0.0	0.0	0.0	0.0	0.0	145.86206896551727	0.0	0.03552237	-0.05346666	1.014584805	3.17408	0.24416	-0.9919	3299057.0	1776544988.613365	0.0	1.0	-1.0	-1.0	-1.0	-1.0	-1.0	-1.0	-1.0	-1.0	0.0	marker	peace	Peace	27	0418
-68661.765	-55181.7	-104799.375	-18562.364999999998	0.0	0.0	0.0	0.0	0.0	0.0	0.0	0.0	0.0	0.0	0.0	0.0	0.0	0.0	145.86206896551727	0.0	0.03552237	-0.05346666	1.014584805	3.17408	0.24416	-0.9919	3299058.0	1776544988.613384	0.0	1.0	-1.0	-1.0	-1.0	-1.0	-1.0	-1.0	-1.0	-1.0	0.0	marker	peace	Peace	27	0418
-68711.67	-55186.29	-104910.345	-18607.005	0.0	0.0	0.0	0.0	0.0	0.0	0.0	0.0	0.0	0.0	0.0	0.0	0.0	0.0	145.86206896551727	0.0	0.03552237	-0.05346666	1.014584805	3.17408	0.24416	-0.9919	3299059.0	1776544988.617214	0.0	1.0	-1.0	-1.0	-1.0	-1.0	-1.0	-1.0	-1.0	-1.0	0.0	marker	peace	Peace	27	0418
-68745.78	-55200.825	-104932.125	-18629.37	0.0	0.0	0.0	0.0	0.0	0.0	0.0	0.0	0.0	0.0	0.0	0.0	0.0	0.0	145.86206896551727	0.0	0.03552237	-0.05346666	1.014584805	3.17408	0.24416	-0.9919	3299060.0	1776544988.617221	0.0	1.0	-1.0	-1.0	-1.0	-1.0	-1.0	-1.0	-1.0	-1.0	0.0	marker	peace	Peace	27	0418
-68653.305	-55209.689999999995	-104821.92	-18565.02	0.0	0.0	0.0	0.0	0.0	0.0	0.0	0.0	0.0	0.0	0.0	0.0	0.0	0.0	145.86206896551727	0.0	0.03552237	-0.05346666	1.014584805	3.17408	0.24416	-0.9919	3299061.0	1776544988.621282	0.0	1.0	-1.0	-1.0	-1.0	-1.0	-1.0	-1.0	-1.0	-1.0	0.0	marker	peace	Peace	27	0418
-68691.15	-55217.43	-104843.97	-18606.195	0.0	0.0	0.0	0.0	0.0	0.0	0.0	0.0	0.0	0.0	0.0	0.0	0.0	0.0	145.86206896551727	0.0	0.03552237	-0.05346666	1.014584805	3.17408	0.24416	-0.9919	3299062.0	1776544988.62131	0.0	1.0	-1.0	-1.0	-1.0	-1.0	-1.0	-1.0	-1.0	-1.0	0.0	marker	peace	Peace	27	0418
-68736.825	-55223.82	-104898.015	-18609.165	0.0	0.0	0.0	0.0	0.0	0.0	0.0	0.0	0.0	0.0	0.0	0.0	0.0	0.0	145.86206896551727	0.0	0.03222648	-0.05017077	1.0152561900000001	2.88414	0.6867	-0.73248	3299063.0	1776544988.625248	0.0	1.0	-1.0	-1.0	-1.0	-1.0	-1.0	-1.0	-1.0	-1.0	0.0	marker	peace	Peace	27	0418
-68716.62	-55224.18	-104901.39	-18593.01	0.0	0.0	0.0	0.0	0.0	0.0	0.0	0.0	0.0	0.0	0.0	0.0	0.0	0.0	145.86206896551727	0.0	0.03222648	-0.05017077	1.0152561900000001	2.88414	0.6867	-0.73248	3299064.0	1776544988.625255	0.0	1.0	-1.0	-1.0	-1.0	-1.0	-1.0	-1.0	-1.0	-1.0	0.0	marker	peace	Peace	27	0418
-68709.015	-55225.71	-104884.78499999999	-18583.605	0.0	0.0	0.0	0.0	0.0	0.0	0.0	0.0	0.0	0.0	0.0	0.0	0.0	0.0	145.86206896551727	0.0	0.03222648	-0.05017077	1.0152561900000001	2.88414	0.6867	-0.73248	3299065.0	1776544988.629399	0.0	1.0	-1.0	-1.0	-1.0	-1.0	-1.0	-1.0	-1.0	-1.0	0.0	marker	peace	Peace	27	0418
-68730.885	-55230.299999999996	-104909.94	-18616.364999999998	0.0	0.0	0.0	0.0	0.0	0.0	0.0	0.0	0.0	0.0	0.0	0.0	0.0	0.0	145.86206896551727	0.0	0.03222648	-0.05017077	1.0152561900000001	2.88414	0.6867	-0.73248	3299066.0	1776544988.629416	0.0	1.0	-1.0	-1.0	-1.0	-1.0	-1.0	-1.0	-1.0	-1.0	0.0	marker	peace	Peace	27	0418
-68705.415	-55225.17	-104885.86499999999	-18607.77	0.0	0.0	0.0	0.0	0.0	0.0	0.0	0.0	0.0	0.0	0.0	0.0	0.0	0.0	145.86206896551727	0.0	0.03222648	-0.05017077	1.0152561900000001	2.88414	0.6867	-0.73248	3299067.0	1776544988.633546	0.0	1.0	-1.0	-1.0	-1.0	-1.0	-1.0	-1.0	-1.0	-1.0	0.0	marker	peace	Peace	27	0418
-68687.64	-55222.515	-104872.905	-18599.625	0.0	0.0	0.0	0.0	0.0	0.0	0.0	0.0	0.0	0.0	0.0	0.0	0.0	0.0	146.0	0.0	0.03222648	-0.05017077	1.0152561900000001	2.88414	0.6867	-0.73248	3299068.0	1776544988.633565	0.0	1.0	-1.0	-1.0	-1.0	-1.0	-1.0	-1.0	-1.0	-1.0	0.0	marker	peace	Peace	27	0418
-68721.75	-55229.445	-104883.48	-18614.655	0.0	0.0	0.0	0.0	0.0	0.0	0.0	0.0	0.0	0.0	0.0	0.0	0.0	0.0	146.0	0.0	0.03222648	-0.05017077	1.0152561900000001	2.88414	0.6867	-0.73248	3299069.0	1776544988.637364	0.0	1.0	-1.0	-1.0	-1.0	-1.0	-1.0	-1.0	-1.0	-1.0	0.0	marker	peace	Peace	27	0418
-68716.17	-55231.064999999995	-104837.94	-18593.82	0.0	0.0	0.0	0.0	0.0	0.0	0.0	0.0	0.0	0.0	0.0	0.0	0.0	0.0	146.0	0.0	0.03222648	-0.05017077	1.0152561900000001	2.88414	0.6867	-0.73248	3299070.0	1776544988.637381	0.0	1.0	-1.0	-1.0	-1.0	-1.0	-1.0	-1.0	-1.0	-1.0	0.0	marker	peace	Peace	27	0418
-68657.94	-55223.28	-104745.105	-18552.42	0.0	0.0	0.0	0.0	0.0	0.0	0.0	0.0	0.0	0.0	0.0	0.0	0.0	0.0	146.0	0.0	0.03222648	-0.05017077	1.0152561900000001	2.88414	0.6867	-0.73248	3299071.0	1776544988.650187	0.0	1.0	-1.0	-1.0	-1.0	-1.0	-1.0	-1.0	-1.0	-1.0	0.0	marker	peace	Peace	27	0418
-68668.965	-55224.494999999995	-104811.39	-18581.625	0.0	0.0	0.0	0.0	0.0	0.0	0.0	0.0	0.0	0.0	0.0	0.0	0.0	0.0	146.0	0.0	0.03222648	-0.05017077	1.0152561900000001	2.88414	0.6867	-0.73248	3299072.0	1776544988.650199	0.0	1.0	-1.0	-1.0	-1.0	-1.0	-1.0	-1.0	-1.0	-1.0	0.0	marker	peace	Peace	27	0418
-68693.67	-55229.445	-104903.86499999999	-18600.03	0.0	0.0	0.0	0.0	0.0	0.0	0.0	0.0	0.0	0.0	0.0	0.0	0.0	0.0	146.0	0.0	0.03222648	-0.050475945	1.01659896	2.8994	0.7019599999999999	-1.11398	3299073.0	1776544988.650611	0.0	1.0	-1.0	-1.0	-1.0	-1.0	-1.0	-1.0	-1.0	-1.0	0.0	marker	peace	Peace	27	0418
-68702.58	-55238.715	-104897.34	-18601.739999999998	0.0	0.0	0.0	0.0	0.0	0.0	0.0	0.0	0.0	0.0	0.0	0.0	0.0	0.0	146.0	0.0	0.03222648	-0.050475945	1.01659896	2.8994	0.7019599999999999	-1.11398	3299074.0	1776544988.650618	0.0	1.0	-1.0	-1.0	-1.0	-1.0	-1.0	-1.0	-1.0	-1.0	0.0	marker	peace	Peace	27	0418
-68686.245	-55244.159999999996	-104850.58499999999	-18592.425	0.0	0.0	0.0	0.0	0.0	0.0	0.0	0.0	0.0	0.0	0.0	0.0	0.0	0.0	146.0	0.0	0.03222648	-0.050475945	1.01659896	2.8994	0.7019599999999999	-1.11398	3299075.0	1776544988.650627	0.0	1.0	-1.0	-1.0	-1.0	-1.0	-1.0	-1.0	-1.0	-1.0	0.0	marker	peace	Peace	27	0418
-68651.28	-55229.939999999995	-104794.37999999999	-18540.18	0.0	0.0	0.0	0.0	0.0	0.0	0.0	0.0	0.0	0.0	0.0	0.0	0.0	0.0	146.0	0.0	0.03222648	-0.050475945	1.01659896	2.8994	0.7019599999999999	-1.11398	3299076.0	1776544988.650638	0.0	1.0	-1.0	-1.0	-1.0	-1.0	-1.0	-1.0	-1.0	-1.0	0.0	marker	peace	Peace	27	0418
-68679.94499999999	-55218.645	-104821.155	-18559.89	0.0	0.0	0.0	0.0	0.0	0.0	0.0	0.0	0.0	0.0	0.0	0.0	0.0	0.0	146.0	0.0	0.03222648	-0.050475945	1.01659896	2.8994	0.7019599999999999	-1.11398	3299077.0	1776544988.657646	0.0	1.0	-1.0	-1.0	-1.0	-1.0	-1.0	-1.0	-1.0	-1.0	0.0	marker	peace	Peace	27	0418
-68600.79	-55212.57	-104777.19	-18501.93	0.0	0.0	0.0	0.0	0.0	0.0	0.0	0.0	0.0	0.0	0.0	0.0	0.0	0.0	146.0	0.0	0.03222648	-0.050475945	1.01659896	2.8994	0.7019599999999999	-1.11398	3299078.0	1776544988.657652	0.0	1.0	-1.0	-1.0	-1.0	-1.0	-1.0	-1.0	-1.0	-1.0	0.0	marker	peace	Peace	27	0418
-68644.755	-55214.46	-104856.48	-18555.795	0.0	0.0	0.0	0.0	0.0	0.0	0.0	0.0	0.0	0.0	0.0	0.0	0.0	0.0	146.0	0.0	0.03222648	-0.050475945	1.01659896	2.8994	0.7019599999999999	-1.11398	3299079.0	1776544988.663565	0.0	1.0	-1.0	-1.0	-1.0	-1.0	-1.0	-1.0	-1.0	-1.0	0.0	marker	peace	Peace	27	0418
-68733.72	-55215.045	-104925.78	-18623.07	0.0	0.0	0.0	0.0	0.0	0.0	0.0	0.0	0.0	0.0	0.0	0.0	0.0	0.0	146.0	0.0	0.03222648	-0.050475945	1.01659896	2.8994	0.7019599999999999	-1.11398	3299080.0	1776544988.663571	0.0	1.0	-1.0	-1.0	-1.0	-1.0	-1.0	-1.0	-1.0	-1.0	0.0	marker	peace	Peace	27	0418
-68730.84	-55205.145	-104899.995	-18617.579999999998	0.0	0.0	0.0	0.0	0.0	0.0	0.0	0.0	0.0	0.0	0.0	0.0	0.0	0.0	146.0	0.0	0.03222648	-0.050475945	1.01659896	2.8994	0.7019599999999999	-1.11398	3299081.0	1776544988.663579	0.0	1.0	-1.0	-1.0	-1.0	-1.0	-1.0	-1.0	-1.0	-1.0	0.0	marker	peace	Peace	27	0418
-68715.72	-55197.99	-104873.67	-18608.535	0.0	0.0	0.0	0.0	0.0	0.0	0.0	0.0	0.0	0.0	0.0	0.0	0.0	0.0	146.0	0.0	0.03222648	-0.050475945	1.01659896	2.8994	0.7019599999999999	-1.11398	3299082.0	1776544988.663583	0.0	1.0	-1.0	-1.0	-1.0	-1.0	-1.0	-1.0	-1.0	-1.0	0.0	marker	peace	Peace	27	0418
-68623.92	-55197.63	-104799.87	-18545.579999999998	0.0	0.0	0.0	0.0	0.0	0.0	0.0	0.0	0.0	0.0	0.0	0.0	0.0	0.0	146.0	0.0	0.030578535	-0.049499385	1.018735185	2.76206	0.3815	-0.12208	3299083.0	1776544988.66548	0.0	1.0	-1.0	-1.0	-1.0	-1.0	-1.0	-1.0	-1.0	-1.0	0.0	marker	peace	Peace	27	0418
-68613.84	-55189.395	-104796.62999999999	-18547.29	0.0	0.0	0.0	0.0	0.0	0.0	0.0	0.0	0.0	0.0	0.0	0.0	0.0	0.0	146.0	0.0	0.030578535	-0.049499385	1.018735185	2.76206	0.3815	-0.12208	3299084.0	1776544988.665485	0.0	1.0	-1.0	-1.0	-1.0	-1.0	-1.0	-1.0	-1.0	-1.0	0.0	marker	peace	Peace	27	0418
-68719.995	-55188.18	-104892.48	-18633.6	0.0	0.0	0.0	0.0	0.0	0.0	0.0	0.0	0.0	0.0	0.0	0.0	0.0	0.0	146.0	0.0	0.030578535	-0.049499385	1.018735185	2.76206	0.3815	-0.12208	3299085.0	1776544988.669535	0.0	1.0	-1.0	-1.0	-1.0	-1.0	-1.0	-1.0	-1.0	-1.0	0.0	marker	peace	Peace	27	0418
-68684.355	-55183.454999999994	-104907.15	-18632.745	0.0	0.0	0.0	0.0	0.0	0.0	0.0	0.0	0.0	0.0	0.0	0.0	0.0	0.0	146.0	0.0	0.030578535	-0.049499385	1.018735185	2.76206	0.3815	-0.12208	3299086.0	1776544988.669551	0.0	1.0	-1.0	-1.0	-1.0	-1.0	-1.0	-1.0	-1.0	-1.0	0.0	marker	peace	Peace	27	0418
-68674.005	-55181.25	-104870.79	-18569.204999999998	0.0	0.0	0.0	0.0	0.0	0.0	0.0	0.0	0.0	0.0	0.0	0.0	0.0	0.0	146.0	0.0	0.030578535	-0.049499385	1.018735185	2.76206	0.3815	-0.12208	3299087.0	1776544988.67352	0.0	1.0	-1.0	-1.0	-1.0	-1.0	-1.0	-1.0	-1.0	-1.0	0.0	marker	peace	Peace	27	0418
-68716.395	-55191.78	-104908.14	-18614.295	0.0	0.0	0.0	0.0	0.0	0.0	0.0	0.0	0.0	0.0	0.0	0.0	0.0	0.0	146.0	0.0	0.030578535	-0.049499385	1.018735185	2.76206	0.3815	-0.12208	3299088.0	1776544988.673545	0.0	1.0	-1.0	-1.0	-1.0	-1.0	-1.0	-1.0	-1.0	-1.0	0.0	marker	peace	Peace	27	0418
-68659.69499999999	-55195.604999999996	-104841.765	-18565.469999999998	0.0	0.0	0.0	0.0	0.0	0.0	0.0	0.0	0.0	0.0	0.0	0.0	0.0	0.0	146.0	0.0	0.030578535	-0.049499385	1.018735185	2.76206	0.3815	-0.12208	3299089.0	1776544988.678263	0.0	1.0	-1.0	-1.0	-1.0	-1.0	-1.0	-1.0	-1.0	-1.0	0.0	marker	peace	Peace	27	0418
-68667.75	-55196.235	-104811.61499999999	-18544.274999999998	0.0	0.0	0.0	0.0	0.0	0.0	0.0	0.0	0.0	0.0	0.0	0.0	0.0	0.0	146.0	0.0	0.030578535	-0.049499385	1.018735185	2.76206	0.3815	-0.12208	3299090.0	1776544988.678281	0.0	1.0	-1.0	-1.0	-1.0	-1.0	-1.0	-1.0	-1.0	-1.0	0.0	marker	peace	Peace	27	0418
-68666.265	-55200.645	-104822.415	-18574.065	0.0	0.0	0.0	0.0	0.0	0.0	0.0	0.0	0.0	0.0	0.0	0.0	0.0	0.0	146.0	0.0	0.030578535	-0.049499385	1.018735185	2.76206	0.3815	-0.12208	3299091.0	1776544988.681872	0.0	1.0	-1.0	-1.0	-1.0	-1.0	-1.0	-1.0	-1.0	-1.0	0.0	marker	peace	Peace	27	0418
-68746.86	-55211.265	-104936.985	-18685.215	0.0	0.0	0.0	0.0	0.0	0.0	0.0	0.0	0.0	0.0	0.0	0.0	0.0	0.0	146.0	0.0	0.030578535	-0.049499385	1.018735185	2.76206	0.3815	-0.12208	3299092.0	1776544988.681991	0.0	1.0	-1.0	-1.0	-1.0	-1.0	-1.0	-1.0	-1.0	-1.0	0.0	marker	peace	Peace	27	0418
-68734.89	-55205.145	-104934.64499999999	-18635.085	0.0	0.0	0.0	0.0	0.0	0.0	0.0	0.0	0.0	0.0	0.0	0.0	0.0	0.0	146.0	0.0	0.029479905	-0.047973510000000004	1.018979325	3.92182	0.59514	-0.763	3299093.0	1776544988.685638	0.0	1.0	-1.0	-1.0	-1.0	-1.0	-1.0	-1.0	-1.0	-1.0	0.0	marker	peace	Peace	27	0418
-68735.295	-55196.28	-104938.875	-18612.989999999998	0.0	0.0	0.0	0.0	0.0	0.0	0.0	0.0	0.0	0.0	0.0	0.0	0.0	0.0	146.0	0.0	0.029479905	-0.047973510000000004	1.018979325	3.92182	0.59514	-0.763	3299094.0	1776544988.685661	0.0	1.0	-1.0	-1.0	-1.0	-1.0	-1.0	-1.0	-1.0	-1.0	0.0	marker	peace	Peace	27	0418
-68728.31999999999	-55194.57	-104919.25499999999	-18606.239999999998	0.0	0.0	0.0	0.0	0.0	0.0	0.0	0.0	0.0	0.0	0.0	0.0	0.0	0.0	146.0	0.0	0.029479905	-0.047973510000000004	1.018979325	3.92182	0.59514	-0.763	3299095.0	1776544988.689514	0.0	1.0	-1.0	-1.0	-1.0	-1.0	-1.0	-1.0	-1.0	-1.0	0.0	marker	peace	Peace	27	0418
-68641.38	-55197.99	-104806.215	-18534.149999999998	0.0	0.0	0.0	0.0	0.0	0.0	0.0	0.0	0.0	0.0	0.0	0.0	0.0	0.0	146.0	0.0	0.029479905	-0.047973510000000004	1.018979325	3.92182	0.59514	-0.763	3299096.0	1776544988.689529	0.0	1.0	-1.0	-1.0	-1.0	-1.0	-1.0	-1.0	-1.0	-1.0	0.0	marker	peace	Peace	27	0418
-68625.27	-55209.78	-104779.44	-18528.75	0.0	0.0	0.0	0.0	0.0	0.0	0.0	0.0	0.0	0.0	0.0	0.0	0.0	0.0	146.0	0.0	0.029479905	-0.047973510000000004	1.018979325	3.92182	0.59514	-0.763	3299097.0	1776544988.69352	0.0	1.0	-1.0	-1.0	-1.0	-1.0	-1.0	-1.0	-1.0	-1.0	0.0	marker	peace	Peace	27	0418
-68743.8	-55218.96	-104862.19499999999	-18621.719999999998	0.0	0.0	0.0	0.0	0.0	0.0	0.0	0.0	0.0	0.0	0.0	0.0	0.0	0.0	146.0	0.0	0.029479905	-0.047973510000000004	1.018979325	3.92182	0.59514	-0.763	3299098.0	1776544988.693535	0.0	1.0	-1.0	-1.0	-1.0	-1.0	-1.0	-1.0	-1.0	-1.0	0.0	marker	peace	Peace	27	0418
-68708.79	-55213.92	-104862.735	-18597.96	0.0	0.0	0.0	0.0	0.0	0.0	0.0	0.0	0.0	0.0	0.0	0.0	0.0	0.0	146.0	0.0	0.029479905	-0.047973510000000004	1.018979325	3.92182	0.59514	-0.763	3299099.0	1776544988.700369	0.0	1.0	-1.0	-1.0	-1.0	-1.0	-1.0	-1.0	-1.0	-1.0	0.0	marker	peace	Peace	27	0418
-68673.33	-55208.97	-104862.23999999999	-18565.155	0.0	0.0	0.0	0.0	0.0	0.0	0.0	0.0	0.0	0.0	0.0	0.0	0.0	0.0	146.0	0.0	0.029479905	-0.047973510000000004	1.018979325	3.92182	0.59514	-0.763	3299100.0	1776544988.700392	0.0	1.0	-1.0	-1.0	-1.0	-1.0	-1.0	-1.0	-1.0	-1.0	0.0	marker	peace	Peace	27	0418
-68711.265	-55194.975	-104884.01999999999	-18600.704999999998	0.0	0.0	0.0	0.0	0.0	0.0	0.0	0.0	0.0	0.0	0.0	0.0	0.0	0.0	146.0	0.0	0.029479905	-0.047973510000000004	1.018979325	3.92182	0.59514	-0.763	3299101.0	1776544988.703215	0.0	1.0	-1.0	-1.0	-1.0	-1.0	-1.0	-1.0	-1.0	-1.0	0.0	marker	peace	Peace	27	0418
-68653.34999999999	-55177.424999999996	-104803.33499999999	-18542.969999999998	0.0	0.0	0.0	0.0	0.0	0.0	0.0	0.0	0.0	0.0	0.0	0.0	0.0	0.0	146.0	0.0	0.029479905	-0.047973510000000004	1.018979325	3.92182	0.59514	-0.763	3299102.0	1776544988.703236	0.0	1.0	-1.0	-1.0	-1.0	-1.0	-1.0	-1.0	-1.0	-1.0	0.0	marker	peace	Peace	27	0418
-68584.14	-55170.18	-104764.455	-18490.005	0.0	0.0	0.0	0.0	0.0	0.0	0.0	0.0	0.0	0.0	0.0	0.0	0.0	0.0	146.0	0.0	0.03271476	-0.04980456	1.017148275	2.71628	0.25942	-0.65618	3299103.0	1776544988.705513	0.0	1.0	-1.0	-1.0	-1.0	-1.0	-1.0	-1.0	-1.0	-1.0	0.0	marker	peace	Peace	27	0418
-68738.805	-55179.09	-104932.17	-18629.19	0.0	0.0	0.0	0.0	0.0	0.0	0.0	0.0	0.0	0.0	0.0	0.0	0.0	0.0	146.0	0.0	0.03271476	-0.04980456	1.017148275	2.71628	0.25942	-0.65618	3299104.0	1776544988.705525	0.0	1.0	-1.0	-1.0	-1.0	-1.0	-1.0	-1.0	-1.0	-1.0	0.0	marker	peace	Peace	27	0418
-68812.065	-55187.189999999995	-104989.185	-18705.87	0.0	0.0	0.0	0.0	0.0	0.0	0.0	0.0	0.0	0.0	0.0	0.0	0.0	0.0	146.0	0.0	0.03271476	-0.04980456	1.017148275	2.71628	0.25942	-0.65618	3299105.0	1776544988.70963	0.0	1.0	-1.0	-1.0	-1.0	-1.0	-1.0	-1.0	-1.0	-1.0	0.0	marker	peace	Peace	27	0418
-68746.36499999999	-55187.055	-104905.305	-18646.245	0.0	0.0	0.0	0.0	0.0	0.0	0.0	0.0	0.0	0.0	0.0	0.0	0.0	0.0	146.0	0.0	0.03271476	-0.04980456	1.017148275	2.71628	0.25942	-0.65618	3299106.0	1776544988.709648	0.0	1.0	-1.0	-1.0	-1.0	-1.0	-1.0	-1.0	-1.0	-1.0	0.0	marker	peace	Peace	27	0418
-68657.4	-55184.354999999996	-104814.045	-18553.274999999998	0.0	0.0	0.0	0.0	0.0	0.0	0.0	0.0	0.0	0.0	0.0	0.0	0.0	0.0	146.0	0.0	0.03271476	-0.04980456	1.017148275	2.71628	0.25942	-0.65618	3299107.0	1776544988.713625	0.0	1.0	-1.0	-1.0	-1.0	-1.0	-1.0	-1.0	-1.0	-1.0	0.0	marker	peace	Peace	27	0418
-68676.165	-55182.06	-104849.45999999999	-18572.67	0.0	0.0	0.0	0.0	0.0	0.0	0.0	0.0	0.0	0.0	0.0	0.0	0.0	0.0	146.0	0.0	0.03271476	-0.04980456	1.017148275	2.71628	0.25942	-0.65618	3299108.0	1776544988.713651	0.0	1.0	-1.0	-1.0	-1.0	-1.0	-1.0	-1.0	-1.0	-1.0	0.0	marker	peace	Peace	27	0418
-68628.06	-55181.97	-104818.545	-18534.42	0.0	0.0	0.0	0.0	0.0	0.0	0.0	0.0	0.0	0.0	0.0	0.0	0.0	0.0	146.0	0.0	0.03271476	-0.04980456	1.017148275	2.71628	0.25942	-0.65618	3299109.0	1776544988.717631	0.0	1.0	-1.0	-1.0	-1.0	-1.0	-1.0	-1.0	-1.0	-1.0	0.0	marker	peace	Peace	27	0418
-68670.0	-55190.61	-104842.75499999999	-18589.14	0.0	0.0	0.0	0.0	0.0	0.0	0.0	0.0	0.0	0.0	0.0	0.0	0.0	0.0	146.0	0.0	0.03271476	-0.04980456	1.017148275	2.71628	0.25942	-0.65618	3299110.0	1776544988.717657	0.0	1.0	-1.0	-1.0	-1.0	-1.0	-1.0	-1.0	-1.0	-1.0	0.0	marker	peace	Peace	27	0418
-68755.36499999999	-55205.415	-104899.36499999999	-18656.73	0.0	0.0	0.0	0.0	0.0	0.0	0.0	0.0	0.0	0.0	0.0	0.0	0.0	0.0	146.0	0.0	0.03271476	-0.04980456	1.017148275	2.71628	0.25942	-0.65618	3299111.0	1776544988.721733	0.0	1.0	-1.0	-1.0	-1.0	-1.0	-1.0	-1.0	-1.0	-1.0	0.0	marker	peace	Peace	27	0418
-68744.47499999999	-55205.865	-104847.20999999999	-18625.545	0.0	0.0	0.0	0.0	0.0	0.0	0.0	0.0	0.0	0.0	0.0	0.0	0.0	0.0	146.0	0.0	0.03271476	-0.04980456	1.017148275	2.71628	0.25942	-0.65618	3299112.0	1776544988.721763	0.0	1.0	-1.0	-1.0	-1.0	-1.0	-1.0	-1.0	-1.0	-1.0	0.0	marker	peace	Peace	27	0418
-68700.645	-55205.415	-104847.885	-18608.445	0.0	0.0	0.0	0.0	0.0	0.0	0.0	0.0	0.0	0.0	0.0	0.0	0.0	0.0	146.0	0.0	0.031555095	-0.053405625	1.014828945	3.8760399999999997	0.77826	-1.64808	3299113.0	1776544988.7256	0.0	1.0	-1.0	-1.0	-1.0	-1.0	-1.0	-1.0	-1.0	-1.0	0.0	marker	peace	Peace	27	0418
-68718.87	-55212.255	-104944.76999999999	-18617.489999999998	0.0	0.0	0.0	0.0	0.0	0.0	0.0	0.0	0.0	0.0	0.0	0.0	0.0	0.0	146.0	0.0	0.031555095	-0.053405625	1.014828945	3.8760399999999997	0.77826	-1.64808	3299114.0	1776544988.725615	0.0	1.0	-1.0	-1.0	-1.0	-1.0	-1.0	-1.0	-1.0	-1.0	0.0	marker	peace	Peace	27	0418
-68724.98999999999	-55210.365	-104933.51999999999	-18629.55	0.0	0.0	0.0	0.0	0.0	0.0	0.0	0.0	0.0	0.0	0.0	0.0	0.0	0.0	146.0	0.0	0.031555095	-0.053405625	1.014828945	3.8760399999999997	0.77826	-1.64808	3299115.0	1776544988.729802	0.0	1.0	-1.0	-1.0	-1.0	-1.0	-1.0	-1.0	-1.0	-1.0	0.0	marker	peace	Peace	27	0418
-68636.925	-55192.725	-104840.81999999999	-18554.219999999998	0.0	0.0	0.0	0.0	0.0	0.0	0.0	0.0	0.0	0.0	0.0	0.0	0.0	0.0	146.0	0.0	0.031555095	-0.053405625	1.014828945	3.8760399999999997	0.77826	-1.64808	3299116.0	1776544988.729815	0.0	1.0	-1.0	-1.0	-1.0	-1.0	-1.0	-1.0	-1.0	-1.0	0.0	marker	peace	Peace	27	0418
-68710.275	-55192.68	-104883.20999999999	-18606.6	0.0	0.0	0.0	0.0	0.0	0.0	0.0	0.0	0.0	0.0	0.0	0.0	0.0	0.0	146.0	0.0	0.031555095	-0.053405625	1.014828945	3.8760399999999997	0.77826	-1.64808	3299117.0	1776544988.736597	0.0	1.0	-1.0	-1.0	-1.0	-1.0	-1.0	-1.0	-1.0	-1.0	0.0	marker	peace	Peace	27	0418
-68741.28	-55197.045	-104895.94499999999	-18642.915	0.0	0.0	0.0	0.0	0.0	0.0	0.0	0.0	0.0	0.0	0.0	0.0	0.0	0.0	146.0	0.0	0.031555095	-0.053405625	1.014828945	3.8760399999999997	0.77826	-1.64808	3299118.0	1776544988.736664	0.0	1.0	-1.0	-1.0	-1.0	-1.0	-1.0	-1.0	-1.0	-1.0	0.0	marker	peace	Peace	27	0418
-68686.69499999999	-55201.32	-104843.745	-18590.309999999998	0.0	0.0	0.0	0.0	0.0	0.0	0.0	0.0	0.0	0.0	0.0	0.0	0.0	0.0	146.0	0.0	0.031555095	-0.053405625	1.014828945	3.8760399999999997	0.77826	-1.64808	3299119.0	1776544988.737697	0.0	1.0	-1.0	-1.0	-1.0	-1.0	-1.0	-1.0	-1.0	-1.0	0.0	marker	peace	Peace	27	0418
-68665.77	-55198.439999999995	-104851.39499999999	-18591.165	0.0	0.0	0.0	0.0	0.0	0.0	0.0	0.0	0.0	0.0	0.0	0.0	0.0	0.0	146.0	0.0	0.031555095	-0.053405625	1.014828945	3.8760399999999997	0.77826	-1.64808	3299120.0	1776544988.737716	0.0	1.0	-1.0	-1.0	-1.0	-1.0	-1.0	-1.0	-1.0	-1.0	0.0	marker	peace	Peace	27	0418
-68712.56999999999	-55203.57	-104900.625	-18600.21	0.0	0.0	0.0	0.0	0.0	0.0	0.0	0.0	0.0	0.0	0.0	0.0	0.0	0.0	146.0	0.0	0.031555095	-0.053405625	1.014828945	3.8760399999999997	0.77826	-1.64808	3299121.0	1776544988.74162	0.0	1.0	-1.0	-1.0	-1.0	-1.0	-1.0	-1.0	-1.0	-1.0	0.0	marker	peace	Peace	27	0418
-68667.84	-55203.119999999995	-104845.68	-18563.895	0.0	0.0	0.0	0.0	0.0	0.0	0.0	0.0	0.0	0.0	0.0	0.0	0.0	0.0	146.0	0.0	0.031555095	-0.053405625	1.014828945	3.8760399999999997	0.77826	-1.64808	3299122.0	1776544988.741634	0.0	1.0	-1.0	-1.0	-1.0	-1.0	-1.0	-1.0	-1.0	-1.0	0.0	marker	peace	Peace	27	0418
-68636.52	-55201.59	-104778.765	-18541.079999999998	0.0	0.0	0.0	0.0	0.0	0.0	0.0	0.0	0.0	0.0	0.0	0.0	0.0	0.0	146.0	0.0	0.033874425	-0.047057985000000004	1.01244858	2.63998	0.9156	-0.44254	3299123.0	1776544988.745709	0.0	1.0	-1.0	-1.0	-1.0	-1.0	-1.0	-1.0	-1.0	-1.0	0.0	marker	peace	Peace	27	0418
-68671.395	-55201.185	-104805.855	-18537.21	0.0	0.0	0.0	0.0	0.0	0.0	0.0	0.0	0.0	0.0	0.0	0.0	0.0	0.0	146.0	0.0	0.033874425	-0.047057985000000004	1.01244858	2.63998	0.9156	-0.44254	3299124.0	1776544988.745731	0.0	1.0	-1.0	-1.0	-1.0	-1.0	-1.0	-1.0	-1.0	-1.0	0.0	marker	peace	Peace	27	0418
-68747.715	-55205.325	-104911.37999999999	-18626.76	0.0	0.0	0.0	0.0	0.0	0.0	0.0	0.0	0.0	0.0	0.0	0.0	0.0	0.0	146.0	0.0	0.033874425	-0.047057985000000004	1.01244858	2.63998	0.9156	-0.44254	3299125.0	1776544988.749808	0.0	1.0	-1.0	-1.0	-1.0	-1.0	-1.0	-1.0	-1.0	-1.0	0.0	marker	peace	Peace	27	0418
-68740.02	-55201.994999999995	-104895.405	-18633.78	0.0	0.0	0.0	0.0	0.0	0.0	0.0	0.0	0.0	0.0	0.0	0.0	0.0	0.0	146.0	0.0	0.033874425	-0.047057985000000004	1.01244858	2.63998	0.9156	-0.44254	3299126.0	1776544988.749833	0.0	1.0	-1.0	-1.0	-1.0	-1.0	-1.0	-1.0	-1.0	-1.0	0.0	marker	peace	Peace	27	0418
-68618.7	-55189.395	-104779.62	-18525.6	0.0	0.0	0.0	0.0	0.0	0.0	0.0	0.0	0.0	0.0	0.0	0.0	0.0	0.0	146.0	0.0	0.033874425	-0.047057985000000004	1.01244858	2.63998	0.9156	-0.44254	3299127.0	1776544988.753742	0.0	1.0	-1.0	-1.0	-1.0	-1.0	-1.0	-1.0	-1.0	-1.0	0.0	marker	peace	Peace	27	0418
-68595.84	-55199.88	-104769.405	-18500.13	0.0	0.0	0.0	0.0	0.0	0.0	0.0	0.0	0.0	0.0	0.0	0.0	0.0	0.0	146.0	0.0	0.033874425	-0.047057985000000004	1.01244858	2.63998	0.9156	-0.44254	3299128.0	1776544988.753774	0.0	1.0	-1.0	-1.0	-1.0	-1.0	-1.0	-1.0	-1.0	-1.0	0.0	marker	peace	Peace	27	0418
-68644.17	-55257.93	-104816.655	-18557.19	0.0	0.0	0.0	0.0	0.0	0.0	0.0	0.0	0.0	0.0	0.0	0.0	0.0	0.0	146.0	0.0	0.033874425	-0.047057985000000004	1.01244858	2.63998	0.9156	-0.44254	3299129.0	1776544988.757717	0.0	1.0	-1.0	-1.0	-1.0	-1.0	-1.0	-1.0	-1.0	-1.0	0.0	marker	peace	Peace	27	0418
-68723.145	-55275.39	-104904.45	-18631.395	0.0	0.0	0.0	0.0	0.0	0.0	0.0	0.0	0.0	0.0	0.0	0.0	0.0	0.0	146.0	0.0	0.033874425	-0.047057985000000004	1.01244858	2.63998	0.9156	-0.44254	3299130.0	1776544988.757741	0.0	1.0	-1.0	-1.0	-1.0	-1.0	-1.0	-1.0	-1.0	-1.0	0.0	marker	peace	Peace	27	0418
-68701.59	-55269.0	-104881.635	-18598.005	0.0	0.0	0.0	0.0	0.0	0.0	0.0	0.0	0.0	0.0	0.0	0.0	0.0	0.0	146.0	0.0	0.033874425	-0.047057985000000004	1.01244858	2.63998	0.9156	-0.44254	3299131.0	1776544988.761777	0.0	1.0	-1.0	-1.0	-1.0	-1.0	-1.0	-1.0	-1.0	-1.0	0.0	marker	peace	Peace	27	0418
-68613.165	-55265.13	-104777.37	-18511.11	0.0	0.0	0.0	0.0	0.0	0.0	0.0	0.0	0.0	0.0	0.0	0.0	0.0	0.0	146.0	0.0	0.033874425	-0.047057985000000004	1.01244858	2.63998	0.9156	-0.44254	3299132.0	1776544988.761797	0.0	1.0	-1.0	-1.0	-1.0	-1.0	-1.0	-1.0	-1.0	-1.0	0.0	marker	peace	Peace	27	0418
-68687.955	-55265.354999999996	-104846.12999999999	-18600.66	0.0	0.0	0.0	0.0	0.0	0.0	0.0	0.0	0.0	0.0	0.0	0.0	0.0	0.0	146.0	0.0	0.029968185	-0.046203495000000004	1.01989485	2.76206	0.12208	-0.50358	3299133.0	1776544988.766024	0.0	1.0	-1.0	-1.0	-1.0	-1.0	-1.0	-1.0	-1.0	-1.0	0.0	marker	peace	Peace	27	0418
-68726.88	-55256.534999999996	-104877.315	-18599.85	0.0	0.0	0.0	0.0	0.0	0.0	0.0	0.0	0.0	0.0	0.0	0.0	0.0	0.0	146.0	0.0	0.029968185	-0.046203495000000004	1.01989485	2.76206	0.12208	-0.50358	3299134.0	1776544988.766049	0.0	1.0	-1.0	-1.0	-1.0	-1.0	-1.0	-1.0	-1.0	-1.0	0.0	marker	peace	Peace	27	0418
-68720.265	-55246.95	-104909.08499999999	-18598.545	0.0	0.0	0.0	0.0	0.0	0.0	0.0	0.0	0.0	0.0	0.0	0.0	0.0	0.0	146.0	0.0	0.029968185	-0.046203495000000004	1.01989485	2.76206	0.12208	-0.50358	3299135.0	1776544988.769894	0.0	1.0	-1.0	-1.0	-1.0	-1.0	-1.0	-1.0	-1.0	-1.0	0.0	marker	peace	Peace	27	0418
-68641.02	-55233.63	-104824.485	-18585.855	0.0	0.0	0.0	0.0	0.0	0.0	0.0	0.0	0.0	0.0	0.0	0.0	0.0	0.0	146.0	0.0	0.029968185	-0.046203495000000004	1.01989485	2.76206	0.12208	-0.50358	3299136.0	1776544988.76993	0.0	1.0	-1.0	-1.0	-1.0	-1.0	-1.0	-1.0	-1.0	-1.0	0.0	marker	peace	Peace	27	0418
-68678.91	-55231.74	-104771.43	-18596.07	0.0	0.0	0.0	0.0	0.0	0.0	0.0	0.0	0.0	0.0	0.0	0.0	0.0	0.0	146.0	0.0	0.029968185	-0.046203495000000004	1.01989485	2.76206	0.12208	-0.50358	3299137.0	1776544988.773786	0.0	1.0	-1.0	-1.0	-1.0	-1.0	-1.0	-1.0	-1.0	-1.0	0.0	marker	peace	Peace	27	0418
-68765.31	-55245.96	-104929.065	-18669.015	0.0	0.0	0.0	0.0	0.0	0.0	0.0	0.0	0.0	0.0	0.0	0.0	0.0	0.0	146.0	0.0	0.029968185	-0.046203495000000004	1.01989485	2.76206	0.12208	-0.50358	3299138.0	1776544988.773804	0.0	1.0	-1.0	-1.0	-1.0	-1.0	-1.0	-1.0	-1.0	-1.0	0.0	marker	peace	Peace	27	0418
-68700.825	-55251.314999999995	-104954.31	-18617.94	0.0	0.0	0.0	0.0	0.0	0.0	0.0	0.0	0.0	0.0	0.0	0.0	0.0	0.0	146.0	0.0	0.029968185	-0.046203495000000004	1.01989485	2.76206	0.12208	-0.50358	3299139.0	1776544988.777853	0.0	1.0	-1.0	-1.0	-1.0	-1.0	-1.0	-1.0	-1.0	-1.0	0.0	marker	peace	Peace	27	0418
-68648.895	-55251.54	-104883.56999999999	-18555.57	0.0	0.0	0.0	0.0	0.0	0.0	0.0	0.0	0.0	0.0	0.0	0.0	0.0	0.0	146.0	0.0	0.029968185	-0.046203495000000004	1.01989485	2.76206	0.12208	-0.50358	3299140.0	1776544988.777868	0.0	1.0	-1.0	-1.0	-1.0	-1.0	-1.0	-1.0	-1.0	-1.0	0.0	marker	peace	Peace	27	0418
-68629.14	-55244.88	-104795.055	-18508.094999999998	0.0	0.0	0.0	0.0	0.0	0.0	0.0	0.0	0.0	0.0	0.0	0.0	0.0	0.0	146.0	0.0	0.029968185	-0.046203495000000004	1.01989485	2.76206	0.12208	-0.50358	3299141.0	1776544988.782077	0.0	1.0	-1.0	-1.0	-1.0	-1.0	-1.0	-1.0	-1.0	-1.0	0.0	marker	peace	Peace	27	0418
-68690.385	-55234.71	-104818.905	-18558.765	0.0	0.0	0.0	0.0	0.0	0.0	0.0	0.0	0.0	0.0	0.0	0.0	0.0	0.0	146.0	0.0	0.029968185	-0.046203495000000004	1.01989485	2.76206	0.12208	-0.50358	3299142.0	1776544988.782099	0.0	1.0	-1.0	-1.0	-1.0	-1.0	-1.0	-1.0	-1.0	-1.0	0.0	marker	peace	Peace	27	0418
-68747.13	-55233.09	-104897.295	-18629.145	0.0	0.0	0.0	0.0	0.0	0.0	0.0	0.0	0.0	0.0	0.0	0.0	0.0	0.0	146.0	0.0	0.028625415	-0.048156615	1.023251775	3.2809	-0.30519999999999997	-0.62566	3299143.0	1776544988.785885	0.0	1.0	-1.0	-1.0	-1.0	-1.0	-1.0	-1.0	-1.0	-1.0	0.0	marker	peace	Peace	27	0418
-68753.16	-55241.505	-104935.455	-18639.989999999998	0.0	0.0	0.0	0.0	0.0	0.0	0.0	0.0	0.0	0.0	0.0	0.0	0.0	0.0	146.0	0.0	0.028625415	-0.048156615	1.023251775	3.2809	-0.30519999999999997	-0.62566	3299144.0	1776544988.785916	0.0	1.0	-1.0	-1.0	-1.0	-1.0	-1.0	-1.0	-1.0	-1.0	0.0	marker	peace	Peace	27	0418
-68703.56999999999	-55246.725	-104906.34	-18605.295	0.0	0.0	0.0	0.0	0.0	0.0	0.0	0.0	0.0	0.0	0.0	0.0	0.0	0.0	146.0	0.0	0.028625415	-0.048156615	1.023251775	3.2809	-0.30519999999999997	-0.62566	3299145.0	1776544988.789824	0.0	1.0	-1.0	-1.0	-1.0	-1.0	-1.0	-1.0	-1.0	-1.0	0.0	marker	peace	Peace	27	0418
-68683.77	-55249.155	-104854.00499999999	-18574.29	0.0	0.0	0.0	0.0	0.0	0.0	0.0	0.0	0.0	0.0	0.0	0.0	0.0	0.0	146.0	0.0	0.028625415	-0.048156615	1.023251775	3.2809	-0.30519999999999997	-0.62566	3299146.0	1776544988.789836	0.0	1.0	-1.0	-1.0	-1.0	-1.0	-1.0	-1.0	-1.0	-1.0	0.0	marker	peace	Peace	27	0418
-68696.55	-55253.204999999994	-104834.79	-18578.969999999998	0.0	0.0	0.0	0.0	0.0	0.0	0.0	0.0	0.0	0.0	0.0	0.0	0.0	0.0	146.0	0.0	0.028625415	-0.048156615	1.023251775	3.2809	-0.30519999999999997	-0.62566	3299147.0	1776544988.793883	0.0	1.0	-1.0	-1.0	-1.0	-1.0	-1.0	-1.0	-1.0	-1.0	0.0	marker	peace	Peace	27	0418
-68703.84	-55248.615	-104825.205	-18582.75	0.0	0.0	0.0	0.0	0.0	0.0	0.0	0.0	0.0	0.0	0.0	0.0	0.0	0.0	146.0	0.0	0.028625415	-0.048156615	1.023251775	3.2809	-0.30519999999999997	-0.62566	3299148.0	1776544988.793903	0.0	1.0	-1.0	-1.0	-1.0	-1.0	-1.0	-1.0	-1.0	-1.0	0.0	marker	peace	Peace	27	0418
-68660.415	-55238.759999999995	-104814.26999999999	-18560.969999999998	0.0	0.0	0.0	0.0	0.0	0.0	0.0	0.0	0.0	0.0	0.0	0.0	0.0	0.0	146.0	0.0	0.028625415	-0.048156615	1.023251775	3.2809	-0.30519999999999997	-0.62566	3299149.0	1776544988.800168	0.0	1.0	-1.0	-1.0	-1.0	-1.0	-1.0	-1.0	-1.0	-1.0	0.0	marker	peace	Peace	27	0418
-68619.105	-55234.619999999995	-104797.26	-18535.32	0.0	0.0	0.0	0.0	0.0	0.0	0.0	0.0	0.0	0.0	0.0	0.0	0.0	0.0	146.0	0.0	0.028625415	-0.048156615	1.023251775	3.2809	-0.30519999999999997	-0.62566	3299150.0	1776544988.8002	0.0	1.0	-1.0	-1.0	-1.0	-1.0	-1.0	-1.0	-1.0	-1.0	0.0	marker	peace	Peace	27	0418
-68683.14	-55241.055	-104895.45	-18583.245	0.0	0.0	0.0	0.0	0.0	0.0	0.0	0.0	0.0	0.0	0.0	0.0	0.0	0.0	146.0	0.0	0.028625415	-0.048156615	1.023251775	3.2809	-0.30519999999999997	-0.62566	3299151.0	1776544988.802212	0.0	1.0	-1.0	-1.0	-1.0	-1.0	-1.0	-1.0	-1.0	-1.0	0.0	marker	peace	Peace	27	0418
-68725.305	-55235.924999999996	-104911.47	-18621.855	0.0	0.0	0.0	0.0	0.0	0.0	0.0	0.0	0.0	0.0	0.0	0.0	0.0	0.0	146.0	0.0	0.028625415	-0.048156615	1.023251775	3.2809	-0.30519999999999997	-0.62566	3299152.0	1776544988.802235	0.0	1.0	-1.0	-1.0	-1.0	-1.0	-1.0	-1.0	-1.0	-1.0	0.0	marker	peace	Peace	27	0418
-68732.325	-55234.845	-104873.67	-18601.065	0.0	0.0	0.0	0.0	0.0	0.0	0.0	0.0	0.0	0.0	0.0	0.0	0.0	0.0	146.0	0.0	0.03283683	-0.046630740000000004	1.01867415	2.4263399999999997	-0.01526	-0.24416	3299153.0	1776544988.80592	0.0	1.0	-1.0	-1.0	-1.0	-1.0	-1.0	-1.0	-1.0	-1.0	0.0	marker	peace	Peace	27	0418
-68614.47	-55239.119999999995	-104780.745	-18526.05	0.0	0.0	0.0	0.0	0.0	0.0	0.0	0.0	0.0	0.0	0.0	0.0	0.0	0.0	146.0	0.0	0.03283683	-0.046630740000000004	1.01867415	2.4263399999999997	-0.01526	-0.24416	3299154.0	1776544988.805939	0.0	1.0	-1.0	-1.0	-1.0	-1.0	-1.0	-1.0	-1.0	-1.0	0.0	marker	peace	Peace	27	0418
-68386.815	-55228.725	-104574.105	-18316.395	0.0	0.0	0.0	0.0	0.0	0.0	0.0	0.0	0.0	0.0	0.0	0.0	0.0	0.0	146.0	0.0	0.03283683	-0.046630740000000004	1.01867415	2.4263399999999997	-0.01526	-0.24416	3299155.0	1776544988.810232	0.0	1.0	-1.0	-1.0	-1.0	-1.0	-1.0	-1.0	-1.0	-1.0	0.0	marker	peace	Peace	27	0418
-68563.89	-55242.63	-104728.815	-18447.704999999998	0.0	0.0	0.0	0.0	0.0	0.0	0.0	0.0	0.0	0.0	0.0	0.0	0.0	0.0	146.0	0.0	0.03283683	-0.046630740000000004	1.01867415	2.4263399999999997	-0.01526	-0.24416	3299156.0	1776544988.810249	0.0	1.0	-1.0	-1.0	-1.0	-1.0	-1.0	-1.0	-1.0	-1.0	0.0	marker	peace	Peace	27	0418
-68806.53	-55256.579999999994	-104987.87999999999	-18704.204999999998	0.0	0.0	0.0	0.0	0.0	0.0	0.0	0.0	0.0	0.0	0.0	0.0	0.0	0.0	146.0	0.0	0.03283683	-0.046630740000000004	1.01867415	2.4263399999999997	-0.01526	-0.24416	3299157.0	1776544988.814061	0.0	1.0	-1.0	-1.0	-1.0	-1.0	-1.0	-1.0	-1.0	-1.0	0.0	marker	peace	Peace	27	0418
-68845.905	-55255.365	-105032.205	-18733.59	0.0	0.0	0.0	0.0	0.0	0.0	0.0	0.0	0.0	0.0	0.0	0.0	0.0	0.0	146.0	0.0	0.03283683	-0.046630740000000004	1.01867415	2.4263399999999997	-0.01526	-0.24416	3299158.0	1776544988.814078	0.0	1.0	-1.0	-1.0	-1.0	-1.0	-1.0	-1.0	-1.0	-1.0	0.0	marker	peace	Peace	27	0418
-68754.15	-55247.354999999996	-104911.83	-18630.809999999998	0.0	0.0	0.0	0.0	0.0	0.0	0.0	0.0	0.0	0.0	0.0	0.0	0.0	0.0	146.0	0.0	0.03283683	-0.046630740000000004	1.01867415	2.4263399999999997	-0.01526	-0.24416	3299159.0	1776544988.817974	0.0	1.0	-1.0	-1.0	-1.0	-1.0	-1.0	-1.0	-1.0	-1.0	0.0	marker	peace	Peace	27	0418
-68652.09	-55236.24	-104827.455	-18552.915	0.0	0.0	0.0	0.0	0.0	0.0	0.0	0.0	0.0	0.0	0.0	0.0	0.0	0.0	146.0	0.0	0.03283683	-0.046630740000000004	1.01867415	2.4263399999999997	-0.01526	-0.24416	3299160.0	1776544988.817989	0.0	1.0	-1.0	-1.0	-1.0	-1.0	-1.0	-1.0	-1.0	-1.0	0.0	marker	peace	Peace	27	0418
-68711.715	-55238.715	-104875.965	-18598.23	0.0	0.0	0.0	0.0	0.0	0.0	0.0	0.0	0.0	0.0	0.0	0.0	0.0	0.0	146.0	0.0	0.03283683	-0.046630740000000004	1.01867415	2.4263399999999997	-0.01526	-0.24416	3299161.0	1776544988.822071	0.0	1.0	-1.0	-1.0	-1.0	-1.0	-1.0	-1.0	-1.0	-1.0	0.0	marker	peace	Peace	27	0418
-68706.63	-55246.365	-104872.14	-18581.489999999998	0.0	0.0	0.0	0.0	0.0	0.0	0.0	0.0	0.0	0.0	0.0	0.0	0.0	0.0	146.0	0.0	0.03283683	-0.046630740000000004	1.01867415	2.4263399999999997	-0.01526	-0.24416	3299162.0	1776544988.822111	0.0	1.0	-1.0	-1.0	-1.0	-1.0	-1.0	-1.0	-1.0	-1.0	0.0	marker	peace	Peace	27	0418
-68686.425	-55242.27	-104860.44	-18570.735	0.0	0.0	0.0	0.0	0.0	0.0	0.0	0.0	0.0	0.0	0.0	0.0	0.0	0.0	146.0	0.0	0.03478995	-0.04785144	1.009702005	2.38056	1.46496	-0.5341	3299163.0	1776544988.825694	0.0	1.0	-1.0	-1.0	-1.0	-1.0	-1.0	-1.0	-1.0	-1.0	0.0	marker	peace	Peace	27	0418
-68610.06	-55236.06	-104732.55	-18495.945	0.0	0.0	0.0	0.0	0.0	0.0	0.0	0.0	0.0	0.0	0.0	0.0	0.0	0.0	146.0	0.0	0.03478995	-0.04785144	1.009702005	2.38056	1.46496	-0.5341	3299164.0	1776544988.825705	0.0	1.0	-1.0	-1.0	-1.0	-1.0	-1.0	-1.0	-1.0	-1.0	0.0	marker	peace	Peace	27	0418
-68724.58499999999	-55239.84	-104827.86	-18614.43	0.0	0.0	0.0	0.0	0.0	0.0	0.0	0.0	0.0	0.0	0.0	0.0	0.0	0.0	146.0	0.0	0.03478995	-0.04785144	1.009702005	2.38056	1.46496	-0.5341	3299165.0	1776544988.830016	0.0	1.0	-1.0	-1.0	-1.0	-1.0	-1.0	-1.0	-1.0	-1.0	0.0	marker	peace	Peace	27	0418
-68772.105	-55237.32	-104906.34	-18655.155	0.0	0.0	0.0	0.0	0.0	0.0	0.0	0.0	0.0	0.0	0.0	0.0	0.0	0.0	146.0	0.0	0.03478995	-0.04785144	1.009702005	2.38056	1.46496	-0.5341	3299166.0	1776544988.830033	0.0	1.0	-1.0	-1.0	-1.0	-1.0	-1.0	-1.0	-1.0	-1.0	0.0	marker	peace	Peace	27	0418
-68705.73	-55224.99	-104889.87	-18622.26	0.0	0.0	0.0	0.0	0.0	0.0	0.0	0.0	0.0	0.0	0.0	0.0	0.0	0.0	146.0	0.0	0.03478995	-0.04785144	1.009702005	2.38056	1.46496	-0.5341	3299167.0	1776544988.834032	0.0	1.0	-1.0	-1.0	-1.0	-1.0	-1.0	-1.0	-1.0	-1.0	0.0	marker	peace	Peace	27	0418
-68604.12	-55206.27	-104788.03499999999	-18529.065	0.0	0.0	0.0	0.0	0.0	0.0	0.0	0.0	0.0	0.0	0.0	0.0	0.0	0.0	146.0	0.0	0.03478995	-0.04785144	1.009702005	2.38056	1.46496	-0.5341	3299168.0	1776544988.834045	0.0	1.0	-1.0	-1.0	-1.0	-1.0	-1.0	-1.0	-1.0	-1.0	0.0	marker	peace	Peace	27	0418
-68579.505	-55197.585	-104704.73999999999	-18479.25	0.0	0.0	0.0	0.0	0.0	0.0	0.0	0.0	0.0	0.0	0.0	0.0	0.0	0.0	146.0	0.0	0.03478995	-0.04785144	1.009702005	2.38056	1.46496	-0.5341	3299169.0	1776544988.838034	0.0	1.0	-1.0	-1.0	-1.0	-1.0	-1.0	-1.0	-1.0	-1.0	0.0	marker	peace	Peace	27	0418
-68721.795	-55213.244999999995	-104858.81999999999	-18581.175	0.0	0.0	0.0	0.0	0.0	0.0	0.0	0.0	0.0	0.0	0.0	0.0	0.0	0.0	146.0	0.0	0.03478995	-0.04785144	1.009702005	2.38056	1.46496	-0.5341	3299170.0	1776544988.838069	0.0	1.0	-1.0	-1.0	-1.0	-1.0	-1.0	-1.0	-1.0	-1.0	0.0	marker	peace	Peace	27	0418
-68708.25	-55222.784999999996	-104886.09	-18594.63	0.0	0.0	0.0	0.0	0.0	0.0	0.0	0.0	0.0	0.0	0.0	0.0	0.0	0.0	146.0	0.0	0.03478995	-0.04785144	1.009702005	2.38056	1.46496	-0.5341	3299171.0	1776544988.845779	0.0	1.0	-1.0	-1.0	-1.0	-1.0	-1.0	-1.0	-1.0	-1.0	0.0	marker	peace	Peace	27	0418
-68736.825	-55230.075	-104914.98	-18639.09	0.0	0.0	0.0	0.0	0.0	0.0	0.0	0.0	0.0	0.0	0.0	0.0	0.0	0.0	146.0	0.0	0.03478995	-0.04785144	1.009702005	2.38056	1.46496	-0.5341	3299172.0	1776544988.845807	0.0	1.0	-1.0	-1.0	-1.0	-1.0	-1.0	-1.0	-1.0	-1.0	0.0	marker	peace	Peace	27	0418
-68718.645	-55226.564999999995	-104894.235	-18633.78	0.0	0.0	0.0	0.0	0.0	0.0	0.0	0.0	0.0	0.0	0.0	0.0	0.0	0.0	146.0	0.0	0.03466788	-0.05102526	1.010800635	3.4335	1.58704	-0.56462	3299173.0	1776544988.84609	0.0	1.0	-1.0	-1.0	-1.0	-1.0	-1.0	-1.0	-1.0	-1.0	0.0	marker	peace	Peace	27	0418
-68593.5	-55211.085	-104780.385	-18476.55	0.0	0.0	0.0	0.0	0.0	0.0	0.0	0.0	0.0	0.0	0.0	0.0	0.0	0.0	146.0	0.0	0.03466788	-0.05102526	1.010800635	3.4335	1.58704	-0.56462	3299174.0	1776544988.846103	0.0	1.0	-1.0	-1.0	-1.0	-1.0	-1.0	-1.0	-1.0	-1.0	0.0	marker	peace	Peace	27	0418
-68469.56999999999	-55189.619999999995	-104660.55	-18388.89	0.0	0.0	0.0	0.0	0.0	0.0	0.0	0.0	0.0	0.0	0.0	0.0	0.0	0.0	146.0	0.0	0.03466788	-0.05102526	1.010800635	3.4335	1.58704	-0.56462	3299175.0	1776544988.85014	0.0	1.0	-1.0	-1.0	-1.0	-1.0	-1.0	-1.0	-1.0	-1.0	0.0	marker	peace	Peace	27	0418
-68789.205	-55203.165	-104955.3	-18712.755	0.0	0.0	0.0	0.0	0.0	0.0	0.0	0.0	0.0	0.0	0.0	0.0	0.0	0.0	146.0	0.0	0.03466788	-0.05102526	1.010800635	3.4335	1.58704	-0.56462	3299176.0	1776544988.850163	0.0	1.0	-1.0	-1.0	-1.0	-1.0	-1.0	-1.0	-1.0	-1.0	0.0	marker	peace	Peace	27	0418
-68809.545	-55205.729999999996	-104940.36	-18684.765	0.0	0.0	0.0	0.0	0.0	0.0	0.0	0.0	0.0	0.0	0.0	0.0	0.0	0.0	146.0	0.0	0.03466788	-0.05102526	1.010800635	3.4335	1.58704	-0.56462	3299177.0	1776544988.854143	0.0	1.0	-1.0	-1.0	-1.0	-1.0	-1.0	-1.0	-1.0	-1.0	0.0	marker	peace	Peace	27	0418
-68705.955	-55199.115	-104842.39499999999	-18601.245	0.0	0.0	0.0	0.0	0.0	0.0	0.0	0.0	0.0	0.0	0.0	0.0	0.0	0.0	146.0	0.0	0.03466788	-0.05102526	1.010800635	3.4335	1.58704	-0.56462	3299178.0	1776544988.854158	0.0	1.0	-1.0	-1.0	-1.0	-1.0	-1.0	-1.0	-1.0	-1.0	0.0	marker	peace	Peace	27	0418
-68686.155	-55207.89	-104858.415	-18587.114999999998	0.0	0.0	0.0	0.0	0.0	0.0	0.0	0.0	0.0	0.0	0.0	0.0	0.0	0.0	146.0	0.0	0.03466788	-0.05102526	1.010800635	3.4335	1.58704	-0.56462	3299179.0	1776544988.858126	0.0	1.0	-1.0	-1.0	-1.0	-1.0	-1.0	-1.0	-1.0	-1.0	0.0	marker	peace	Peace	27	0418
-68715.63	-55217.159999999996	-104914.62	-18589.23	0.0	0.0	0.0	0.0	0.0	0.0	0.0	0.0	0.0	0.0	0.0	0.0	0.0	0.0	146.0	0.0	0.03466788	-0.05102526	1.010800635	3.4335	1.58704	-0.56462	3299180.0	1776544988.858152	0.0	1.0	-1.0	-1.0	-1.0	-1.0	-1.0	-1.0	-1.0	-1.0	0.0	marker	peace	Peace	27	0418
-68721.03	-55221.884999999995	-104946.61499999999	-18626.309999999998	0.0	0.0	0.0	0.0	0.0	0.0	0.0	0.0	0.0	0.0	0.0	0.0	0.0	0.0	146.0	0.0	0.03466788	-0.05102526	1.010800635	3.4335	1.58704	-0.56462	3299181.0	1776544988.862147	0.0	1.0	-1.0	-1.0	-1.0	-1.0	-1.0	-1.0	-1.0	-1.0	0.0	marker	peace	Peace	27	0418
-68722.065	-55226.384999999995	-104900.89499999999	-18621.54	0.0	0.0	0.0	0.0	0.0	0.0	0.0	0.0	0.0	0.0	0.0	0.0	0.0	0.0	146.0	0.0	0.03466788	-0.05102526	1.010800635	3.4335	1.58704	-0.56462	3299182.0	1776544988.862168	0.0	1.0	-1.0	-1.0	-1.0	-1.0	-1.0	-1.0	-1.0	-1.0	0.0	marker	peace	Peace	27	0418
-68728.77	-55222.56	-104850.54	-18604.844999999998	0.0	0.0	0.0	0.0	0.0	0.0	0.0	0.0	0.0	0.0	0.0	0.0	0.0	0.0	146.0	0.0	0.029968185	-0.048156615	1.01879622	2.8230999999999997	1.25132	-0.27468	3299183.0	1776544988.8662	0.0	1.0	-1.0	-1.0	-1.0	-1.0	-1.0	-1.0	-1.0	-1.0	0.0	marker	peace	Peace	27	0418
-68706.45	-55221.435	-104862.64499999999	-18608.489999999998	0.0	0.0	0.0	0.0	0.0	0.0	0.0	0.0	0.0	0.0	0.0	0.0	0.0	0.0	146.0	0.0	0.029968185	-0.048156615	1.01879622	2.8230999999999997	1.25132	-0.27468	3299184.0	1776544988.866214	0.0	1.0	-1.0	-1.0	-1.0	-1.0	-1.0	-1.0	-1.0	-1.0	0.0	marker	peace	Peace	27	0418
-68689.8	-55230.345	-104885.775	-18614.07	0.0	0.0	0.0	0.0	0.0	0.0	0.0	0.0	0.0	0.0	0.0	0.0	0.0	0.0	146.0	0.0	0.029968185	-0.048156615	1.01879622	2.8230999999999997	1.25132	-0.27468	3299185.0	1776544988.870211	0.0	1.0	-1.0	-1.0	-1.0	-1.0	-1.0	-1.0	-1.0	-1.0	0.0	marker	peace	Peace	27	0418
-68663.06999999999	-55238.49	-104846.805	-18563.13	0.0	0.0	0.0	0.0	0.0	0.0	0.0	0.0	0.0	0.0	0.0	0.0	0.0	0.0	146.0	0.0	0.029968185	-0.048156615	1.01879622	2.8230999999999997	1.25132	-0.27468	3299186.0	1776544988.870227	0.0	1.0	-1.0	-1.0	-1.0	-1.0	-1.0	-1.0	-1.0	-1.0	0.0	marker	peace	Peace	27	0418
-68610.23999999999	-55241.28	-104798.51999999999	-18511.02	0.0	0.0	0.0	0.0	0.0	0.0	0.0	0.0	0.0	0.0	0.0	0.0	0.0	0.0	146.0	0.0	0.029968185	-0.048156615	1.01879622	2.8230999999999997	1.25132	-0.27468	3299187.0	1776544988.87438	0.0	1.0	-1.0	-1.0	-1.0	-1.0	-1.0	-1.0	-1.0	-1.0	0.0	marker	peace	Peace	27	0418
-68606.81999999999	-55243.53	-104781.915	-18493.695	0.0	0.0	0.0	0.0	0.0	0.0	0.0	0.0	0.0	0.0	0.0	0.0	0.0	0.0	146.0	0.0	0.029968185	-0.048156615	1.01879622	2.8230999999999997	1.25132	-0.27468	3299188.0	1776544988.874392	0.0	1.0	-1.0	-1.0	-1.0	-1.0	-1.0	-1.0	-1.0	-1.0	0.0	marker	peace	Peace	27	0418
-68661.765	-55234.395	-104807.97	-18540.0	0.0	0.0	0.0	0.0	0.0	0.0	0.0	0.0	0.0	0.0	0.0	0.0	0.0	0.0	146.0	0.0	0.029968185	-0.048156615	1.01879622	2.8230999999999997	1.25132	-0.27468	3299189.0	1776544988.878495	0.0	1.0	-1.0	-1.0	-1.0	-1.0	-1.0	-1.0	-1.0	-1.0	0.0	marker	peace	Peace	27	0418
-68661.63	-55232.549999999996	-104795.50499999999	-18543.239999999998	0.0	0.0	0.0	0.0	0.0	0.0	0.0	0.0	0.0	0.0	0.0	0.0	0.0	0.0	146.0	0.0	0.029968185	-0.048156615	1.01879622	2.8230999999999997	1.25132	-0.27468	3299190.0	1776544988.87851	0.0	1.0	-1.0	-1.0	-1.0	-1.0	-1.0	-1.0	-1.0	-1.0	0.0	marker	peace	Peace	27	0418
-68735.11499999999	-55235.924999999996	-104889.915	-18583.2	0.0	0.0	0.0	0.0	0.0	0.0	0.0	0.0	0.0	0.0	0.0	0.0	0.0	0.0	146.0	0.0	0.029968185	-0.048156615	1.01879622	2.8230999999999997	1.25132	-0.27468	3299191.0	1776544988.882233	0.0	1.0	-1.0	-1.0	-1.0	-1.0	-1.0	-1.0	-1.0	-1.0	0.0	marker	peace	Peace	27	0418
-68730.61499999999	-55241.189999999995	-104932.89	-18634.32	0.0	0.0	0.0	0.0	0.0	0.0	0.0	0.0	0.0	0.0	0.0	0.0	0.0	0.0	146.0	0.0	0.029968185	-0.048156615	1.01879622	2.8230999999999997	1.25132	-0.27468	3299192.0	1776544988.882244	0.0	1.0	-1.0	-1.0	-1.0	-1.0	-1.0	-1.0	-1.0	-1.0	0.0	marker	peace	Peace	27	0418
-68741.64	-55247.715	-104904.36	-18634.23	0.0	0.0	0.0	0.0	0.0	0.0	0.0	0.0	0.0	0.0	0.0	0.0	0.0	0.0	146.0	0.0	0.026550225	-0.045104865	1.023495915	2.57894	0.47306	-0.25942	3299193.0	1776544988.886312	0.0	1.0	-1.0	-1.0	-1.0	-1.0	-1.0	-1.0	-1.0	-1.0	0.0	marker	peace	Peace	27	0418
-68737.23	-55252.215	-104821.37999999999	-18615.015	0.0	0.0	0.0	0.0	0.0	0.0	0.0	0.0	0.0	0.0	0.0	0.0	0.0	0.0	146.0	0.0	0.026550225	-0.045104865	1.023495915	2.57894	0.47306	-0.25942	3299194.0	1776544988.886321	0.0	1.0	-1.0	-1.0	-1.0	-1.0	-1.0	-1.0	-1.0	-1.0	0.0	marker	peace	Peace	27	0418
-68697.98999999999	-55267.784999999996	-104812.065	-18590.94	0.0	0.0	0.0	0.0	0.0	0.0	0.0	0.0	0.0	0.0	0.0	0.0	0.0	0.0	146.0	0.0	0.026550225	-0.045104865	1.023495915	2.57894	0.47306	-0.25942	3299195.0	1776544988.890262	0.0	1.0	-1.0	-1.0	-1.0	-1.0	-1.0	-1.0	-1.0	-1.0	0.0	marker	peace	Peace	27	0418
-68604.885	-55283.895	-104817.23999999999	-18523.665	0.0	0.0	0.0	0.0	0.0	0.0	0.0	0.0	0.0	0.0	0.0	0.0	0.0	0.0	146.0	0.0	0.026550225	-0.045104865	1.023495915	2.57894	0.47306	-0.25942	3299196.0	1776544988.890269	0.0	1.0	-1.0	-1.0	-1.0	-1.0	-1.0	-1.0	-1.0	-1.0	0.0	marker	peace	Peace	27	0418
-68631.165	-55290.645	-104863.095	-18556.605	0.0	0.0	0.0	0.0	0.0	0.0	0.0	0.0	0.0	0.0	0.0	0.0	0.0	0.0	146.0	0.0	0.026550225	-0.045104865	1.023495915	2.57894	0.47306	-0.25942	3299197.0	1776544988.898247	0.0	1.0	-1.0	-1.0	-1.0	-1.0	-1.0	-1.0	-1.0	-1.0	0.0	marker	peace	Peace	27	0418
-68697.27	-55297.619999999995	-104930.325	-18623.204999999998	0.0	0.0	0.0	0.0	0.0	0.0	0.0	0.0	0.0	0.0	0.0	0.0	0.0	0.0	146.0	0.0	0.026550225	-0.045104865	1.023495915	2.57894	0.47306	-0.25942	3299198.0	1776544988.898254	0.0	1.0	-1.0	-1.0	-1.0	-1.0	-1.0	-1.0	-1.0	-1.0	0.0	marker	peace	Peace	27	0418
-68699.7	-55298.204999999994	-104856.165	-18583.469999999998	0.0	0.0	0.0	0.0	0.0	0.0	0.0	0.0	0.0	0.0	0.0	0.0	0.0	0.0	146.0	0.0	0.026550225	-0.045104865	1.023495915	2.57894	0.47306	-0.25942	3299199.0	1776544988.898263	0.0	1.0	-1.0	-1.0	-1.0	-1.0	-1.0	-1.0	-1.0	-1.0	0.0	marker	peace	Peace	27	0418
-68664.645	-55294.47	-104819.22	-18554.355	0.0	0.0	0.0	0.0	0.0	0.0	0.0	0.0	0.0	0.0	0.0	0.0	0.0	0.0	146.0	0.0	0.026550225	-0.045104865	1.023495915	2.57894	0.47306	-0.25942	3299200.0	1776544988.898268	0.0	1.0	-1.0	-1.0	-1.0	-1.0	-1.0	-1.0	-1.0	-1.0	0.0	marker	peace	Peace	27	0418
-68601.555	-55308.015	-104801.44499999999	-18504.63	0.0	0.0	0.0	0.0	0.0	0.0	0.0	0.0	0.0	0.0	0.0	0.0	0.0	0.0	146.0	0.0	0.026550225	-0.045104865	1.023495915	2.57894	0.47306	-0.25942	3299201.0	1776544988.903268	0.0	1.0	-1.0	-1.0	-1.0	-1.0	-1.0	-1.0	-1.0	-1.0	0.0	marker	peace	Peace	27	0418
-68727.87	-55327.454999999994	-104896.44	-18636.39	0.0	0.0	0.0	0.0	0.0	0.0	0.0	0.0	0.0	0.0	0.0	0.0	0.0	0.0	146.0	0.0	0.026550225	-0.045104865	1.023495915	2.57894	0.47306	-0.25942	3299202.0	1776544988.903275	0.0	1.0	-1.0	-1.0	-1.0	-1.0	-1.0	-1.0	-1.0	-1.0	0.0	marker	peace	Peace	27	0418
-68723.415	-55328.85	-104876.64	-18610.695	0.0	0.0	0.0	0.0	0.0	0.0	0.0	0.0	0.0	0.0	0.0	0.0	0.0	0.0	146.0	0.0	0.03100578	-0.046630740000000004	1.01818587	2.99096	0.25942	-0.04578	3299203.0	1776544988.907989	0.0	1.0	-1.0	-1.0	-1.0	-1.0	-1.0	-1.0	-1.0	-1.0	0.0	marker	peace	Peace	27	0418
-68675.76	-55329.165	-104838.25499999999	-18549.719999999998	0.0	0.0	0.0	0.0	0.0	0.0	0.0	0.0	0.0	0.0	0.0	0.0	0.0	0.0	146.0	0.0	0.03100578	-0.046630740000000004	1.01818587	2.99096	0.25942	-0.04578	3299204.0	1776544988.907995	0.0	1.0	-1.0	-1.0	-1.0	-1.0	-1.0	-1.0	-1.0	-1.0	0.0	marker	peace	Peace	27	0418
-68584.31999999999	-55326.869999999995	-104760.98999999999	-18482.489999999998	0.0	0.0	0.0	0.0	0.0	0.0	0.0	0.0	0.0	0.0	0.0	0.0	0.0	0.0	146.0	0.0	0.03100578	-0.046630740000000004	1.01818587	2.99096	0.25942	-0.04578	3299205.0	1776544988.911193	0.0	1.0	-1.0	-1.0	-1.0	-1.0	-1.0	-1.0	-1.0	-1.0	0.0	marker	peace	Peace	27	0418
-68705.775	-55340.729999999996	-104862.87	-18599.04	0.0	0.0	0.0	0.0	0.0	0.0	0.0	0.0	0.0	0.0	0.0	0.0	0.0	0.0	146.0	0.0	0.03100578	-0.046630740000000004	1.01818587	2.99096	0.25942	-0.04578	3299206.0	1776544988.9112	0.0	1.0	-1.0	-1.0	-1.0	-1.0	-1.0	-1.0	-1.0	-1.0	0.0	marker	peace	Peace	27	0418
-68780.88	-55342.17	-104912.37	-18664.335	0.0	0.0	0.0	0.0	0.0	0.0	0.0	0.0	0.0	0.0	0.0	0.0	0.0	0.0	146.0	0.0	0.03100578	-0.046630740000000004	1.01818587	2.99096	0.25942	-0.04578	3299207.0	1776544988.914241	0.0	1.0	-1.0	-1.0	-1.0	-1.0	-1.0	-1.0	-1.0	-1.0	0.0	marker	peace	Peace	27	0418
-68599.665	-55321.829999999994	-104777.955	-18556.92	0.0	0.0	0.0	0.0	0.0	0.0	0.0	0.0	0.0	0.0	0.0	0.0	0.0	0.0	146.0	0.0	0.03100578	-0.046630740000000004	1.01818587	2.99096	0.25942	-0.04578	3299208.0	1776544988.914246	0.0	1.0	-1.0	-1.0	-1.0	-1.0	-1.0	-1.0	-1.0	-1.0	0.0	marker	peace	Peace	27	0418
-68614.155	-55306.034999999996	-104812.155	-18570.645	0.0	0.0	0.0	0.0	0.0	0.0	0.0	0.0	0.0	0.0	0.0	0.0	0.0	0.0	146.0	0.0	0.03100578	-0.046630740000000004	1.01818587	2.99096	0.25942	-0.04578	3299209.0	1776544988.918468	0.0	1.0	-1.0	-1.0	-1.0	-1.0	-1.0	-1.0	-1.0	-1.0	0.0	marker	peace	Peace	27	0418
-68797.665	-55221.03	-104979.51	-18686.16	0.0	0.0	0.0	0.0	0.0	0.0	0.0	0.0	0.0	0.0	0.0	0.0	0.0	0.0	146.0	0.0	0.03100578	-0.046630740000000004	1.01818587	2.99096	0.25942	-0.04578	3299210.0	1776544988.918474	0.0	1.0	-1.0	-1.0	-1.0	-1.0	-1.0	-1.0	-1.0	-1.0	0.0	marker	peace	Peace	27	0418
-68666.535	-55164.96	-104854.76999999999	-18594.945	0.0	0.0	0.0	0.0	0.0	0.0	0.0	0.0	0.0	0.0	0.0	0.0	0.0	0.0	146.0	0.0	0.03100578	-0.046630740000000004	1.01818587	2.99096	0.25942	-0.04578	3299211.0	1776544988.922419	0.0	1.0	-1.0	-1.0	-1.0	-1.0	-1.0	-1.0	-1.0	-1.0	0.0	marker	peace	Peace	27	0418
-68670.405	-55172.97	-104818.40999999999	-18617.535	0.0	0.0	0.0	0.0	0.0	0.0	0.0	0.0	0.0	0.0	0.0	0.0	0.0	0.0	146.0	0.0	0.03100578	-0.046630740000000004	1.01818587	2.99096	0.25942	-0.04578	3299212.0	1776544988.922425	0.0	1.0	-1.0	-1.0	-1.0	-1.0	-1.0	-1.0	-1.0	-1.0	0.0	marker	peace	Peace	27	0418
-68761.845	-55185.165	-104868.405	-18632.52	0.0	0.0	0.0	0.0	0.0	0.0	0.0	0.0	0.0	0.0	0.0	0.0	0.0	0.0	146.0	0.0	0.030456465000000002	-0.048156615	1.016171715	2.27374	-0.03052	0.33571999999999996	3299213.0	1776544988.926513	0.0	1.0	-1.0	-1.0	-1.0	-1.0	-1.0	-1.0	-1.0	-1.0	0.0	marker	peace	Peace	27	0418
-68736.15	-55192.365	-104890.76999999999	-18596.655	0.0	0.0	0.0	0.0	0.0	0.0	0.0	0.0	0.0	0.0	0.0	0.0	0.0	0.0	146.0	0.0	0.030456465000000002	-0.048156615	1.016171715	2.27374	-0.03052	0.33571999999999996	3299214.0	1776544988.92652	0.0	1.0	-1.0	-1.0	-1.0	-1.0	-1.0	-1.0	-1.0	-1.0	0.0	marker	peace	Peace	27	0418
-68687.28	-55196.369999999995	-104892.705	-18577.98	0.0	0.0	0.0	0.0	0.0	0.0	0.0	0.0	0.0	0.0	0.0	0.0	0.0	0.0	146.0	0.0	0.030456465000000002	-0.048156615	1.016171715	2.27374	-0.03052	0.33571999999999996	3299215.0	1776544988.930268	0.0	1.0	-1.0	-1.0	-1.0	-1.0	-1.0	-1.0	-1.0	-1.0	0.0	marker	peace	Peace	27	0418
-68682.87	-55191.509999999995	-104909.44499999999	-18575.415	0.0	0.0	0.0	0.0	0.0	0.0	0.0	0.0	0.0	0.0	0.0	0.0	0.0	0.0	146.0	0.0	0.030456465000000002	-0.048156615	1.016171715	2.27374	-0.03052	0.33571999999999996	3299216.0	1776544988.930272	0.0	1.0	-1.0	-1.0	-1.0	-1.0	-1.0	-1.0	-1.0	-1.0	0.0	marker	peace	Peace	27	0418
-68655.285	-55186.829999999994	-104843.295	-18547.829999999998	0.0	0.0	0.0	0.0	0.0	0.0	0.0	0.0	0.0	0.0	0.0	0.0	0.0	0.0	146.0	0.0	0.030456465000000002	-0.048156615	1.016171715	2.27374	-0.03052	0.33571999999999996	3299217.0	1776544988.940011	0.0	1.0	-1.0	-1.0	-1.0	-1.0	-1.0	-1.0	-1.0	-1.0	0.0	marker	peace	Peace	27	0418
-68706.315	-55177.92	-104874.39	-18579.915	0.0	0.0	0.0	0.0	0.0	0.0	0.0	0.0	0.0	0.0	0.0	0.0	0.0	0.0	146.0	0.0	0.030456465000000002	-0.048156615	1.016171715	2.27374	-0.03052	0.33571999999999996	3299218.0	1776544988.940028	0.0	1.0	-1.0	-1.0	-1.0	-1.0	-1.0	-1.0	-1.0	-1.0	0.0	marker	peace	Peace	27	0418
-68716.26	-55164.869999999995	-104905.485	-18625.41	0.0	0.0	0.0	0.0	0.0	0.0	0.0	0.0	0.0	0.0	0.0	0.0	0.0	0.0	146.0	0.0	0.030456465000000002	-0.048156615	1.016171715	2.27374	-0.03052	0.33571999999999996	3299219.0	1776544988.940045	0.0	1.0	-1.0	-1.0	-1.0	-1.0	-1.0	-1.0	-1.0	-1.0	0.0	marker	peace	Peace	27	0418
-68695.02	-55159.965	-104854.36499999999	-18602.415	0.0	0.0	0.0	0.0	0.0	0.0	0.0	0.0	0.0	0.0	0.0	0.0	0.0	0.0	146.0	0.0	0.030456465000000002	-0.048156615	1.016171715	2.27374	-0.03052	0.33571999999999996	3299220.0	1776544988.940049	0.0	1.0	-1.0	-1.0	-1.0	-1.0	-1.0	-1.0	-1.0	-1.0	0.0	marker	peace	Peace	27	0418
-68582.83499999999	-55157.04	-104732.955	-18475.38	0.0	0.0	0.0	0.0	0.0	0.0	0.0	0.0	0.0	0.0	0.0	0.0	0.0	0.0	146.0	0.0	0.030456465000000002	-0.048156615	1.016171715	2.27374	-0.03052	0.33571999999999996	3299221.0	1776544988.942342	0.0	1.0	-1.0	-1.0	-1.0	-1.0	-1.0	-1.0	-1.0	-1.0	0.0	marker	peace	Peace	27	0418
-68682.465	-55164.195	-104792.04	-18564.704999999998	0.0	0.0	0.0	0.0	0.0	0.0	0.0	0.0	0.0	0.0	0.0	0.0	0.0	0.0	146.0	0.0	0.030456465000000002	-0.048156615	1.016171715	2.27374	-0.03052	0.33571999999999996	3299222.0	1776544988.942346	0.0	1.0	-1.0	-1.0	-1.0	-1.0	-1.0	-1.0	-1.0	-1.0	0.0	marker	peace	Peace	27	0418
-68816.745	-55176.345	-104902.245	-18680.489999999998	0.0	0.0	0.0	0.0	0.0	0.0	0.0	0.0	0.0	0.0	0.0	0.0	0.0	0.0	146.0	0.0	0.02880852	-0.047790405	1.021054515	2.31952	0.15259999999999999	0.36624	3299223.0	1776544988.946249	0.0	1.0	-1.0	-1.0	-1.0	-1.0	-1.0	-1.0	-1.0	-1.0	0.0	marker	peace	Peace	27	0418
-68775.84	-55180.979999999996	-104895.495	-18651.465	0.0	0.0	0.0	0.0	0.0	0.0	0.0	0.0	0.0	0.0	0.0	0.0	0.0	0.0	146.0	0.0	0.02880852	-0.047790405	1.021054515	2.31952	0.15259999999999999	0.36624	3299224.0	1776544988.946254	0.0	1.0	-1.0	-1.0	-1.0	-1.0	-1.0	-1.0	-1.0	-1.0	0.0	marker	peace	Peace	27	0418
-68720.08499999999	-55178.595	-104854.00499999999	-18610.649999999998	0.0	0.0	0.0	0.0	0.0	0.0	0.0	0.0	0.0	0.0	0.0	0.0	0.0	0.0	146.0	0.0	0.02880852	-0.047790405	1.021054515	2.31952	0.15259999999999999	0.36624	3299225.0	1776544988.950459	0.0	1.0	-1.0	-1.0	-1.0	-1.0	-1.0	-1.0	-1.0	-1.0	0.0	marker	peace	Peace	27	0418
-68687.775	-55168.38	-104865.93	-18587.88	0.0	0.0	0.0	0.0	0.0	0.0	0.0	0.0	0.0	0.0	0.0	0.0	0.0	0.0	146.0	0.0	0.02880852	-0.047790405	1.021054515	2.31952	0.15259999999999999	0.36624	3299226.0	1776544988.950463	0.0	1.0	-1.0	-1.0	-1.0	-1.0	-1.0	-1.0	-1.0	-1.0	0.0	marker	peace	Peace	27	0418
-68676.39	-55166.13	-104913.54	-18607.32	0.0	0.0	0.0	0.0	0.0	0.0	0.0	0.0	0.0	0.0	0.0	0.0	0.0	0.0	146.0	0.0	0.02880852	-0.047790405	1.021054515	2.31952	0.15259999999999999	0.36624	3299227.0	1776544988.954404	0.0	1.0	-1.0	-1.0	-1.0	-1.0	-1.0	-1.0	-1.0	-1.0	0.0	marker	peace	Peace	27	0418
-68685.03	-55178.46	-104890.14	-18599.579999999998	0.0	0.0	0.0	0.0	0.0	0.0	0.0	0.0	0.0	0.0	0.0	0.0	0.0	0.0	146.0	0.0	0.02880852	-0.047790405	1.021054515	2.31952	0.15259999999999999	0.36624	3299228.0	1776544988.954419	0.0	1.0	-1.0	-1.0	-1.0	-1.0	-1.0	-1.0	-1.0	-1.0	0.0	marker	peace	Peace	27	0418
-68734.395	-55197.674999999996	-104904.855	-18612.54	0.0	0.0	0.0	0.0	0.0	0.0	0.0	0.0	0.0	0.0	0.0	0.0	0.0	0.0	146.0	0.0	0.02880852	-0.047790405	1.021054515	2.31952	0.15259999999999999	0.36624	3299229.0	1776544988.958364	0.0	1.0	-1.0	-1.0	-1.0	-1.0	-1.0	-1.0	-1.0	-1.0	0.0	marker	peace	Peace	27	0418
-68714.145	-55207.215	-104875.56	-18589.14	0.0	0.0	0.0	0.0	0.0	0.0	0.0	0.0	0.0	0.0	0.0	0.0	0.0	0.0	146.0	0.0	0.02880852	-0.047790405	1.021054515	2.31952	0.15259999999999999	0.36624	3299230.0	1776544988.95837	0.0	1.0	-1.0	-1.0	-1.0	-1.0	-1.0	-1.0	-1.0	-1.0	0.0	marker	peace	Peace	27	0418
-68681.52	-55208.204999999994	-104841.26999999999	-18552.6	0.0	0.0	0.0	0.0	0.0	0.0	0.0	0.0	0.0	0.0	0.0	0.0	0.0	0.0	146.0	0.0	0.02880852	-0.047790405	1.021054515	2.31952	0.15259999999999999	0.36624	3299231.0	1776544988.962411	0.0	1.0	-1.0	-1.0	-1.0	-1.0	-1.0	-1.0	-1.0	-1.0	0.0	marker	peace	Peace	27	0418
-68668.69499999999	-55200.06	-104846.4	-18556.739999999998	0.0	0.0	0.0	0.0	0.0	0.0	0.0	0.0	0.0	0.0	0.0	0.0	0.0	0.0	146.0	0.0	0.02880852	-0.047790405	1.021054515	2.31952	0.15259999999999999	0.36624	3299232.0	1776544988.962426	0.0	1.0	-1.0	-1.0	-1.0	-1.0	-1.0	-1.0	-1.0	-1.0	0.0	marker	peace	Peace	27	0418
-68645.295	-55195.74	-104834.06999999999	-18561.555	0.0	0.0	0.0	0.0	0.0	0.0	0.0	0.0	0.0	0.0	0.0	0.0	0.0	0.0	146.0	0.0	0.02954094	-0.04699695	1.020810375	2.07536	-0.27468	0.47306	3299233.0	1776544988.966478	0.0	1.0	-1.0	-1.0	-1.0	-1.0	-1.0	-1.0	-1.0	-1.0	0.0	marker	peace	Peace	27	0418
-68685.075	-55206.63	-104851.75499999999	-18599.895	0.0	0.0	0.0	0.0	0.0	0.0	0.0	0.0	0.0	0.0	0.0	0.0	0.0	0.0	146.0	0.0	0.02954094	-0.04699695	1.020810375	2.07536	-0.27468	0.47306	3299234.0	1776544988.966493	0.0	1.0	-1.0	-1.0	-1.0	-1.0	-1.0	-1.0	-1.0	-1.0	0.0	marker	peace	Peace	27	0418
-68670.495	-55216.53	-104825.79	-18586.17	0.0	0.0	0.0	0.0	0.0	0.0	0.0	0.0	0.0	0.0	0.0	0.0	0.0	0.0	146.0	0.0	0.02954094	-0.04699695	1.020810375	2.07536	-0.27468	0.47306	3299235.0	1776544988.971842	0.0	1.0	-1.0	-1.0	-1.0	-1.0	-1.0	-1.0	-1.0	-1.0	0.0	marker	peace	Peace	27	0418
-68712.705	-55211.625	-104865.03	-18605.204999999998	0.0	0.0	0.0	0.0	0.0	0.0	0.0	0.0	0.0	0.0	0.0	0.0	0.0	0.0	146.0	0.0	0.02954094	-0.04699695	1.020810375	2.07536	-0.27468	0.47306	3299236.0	1776544988.971846	0.0	1.0	-1.0	-1.0	-1.0	-1.0	-1.0	-1.0	-1.0	-1.0	0.0	marker	peace	Peace	27	0418
-68698.53	-55201.229999999996	-104876.685	-18584.505	0.0	0.0	0.0	0.0	0.0	0.0	0.0	0.0	0.0	0.0	0.0	0.0	0.0	0.0	146.0	0.0	0.02954094	-0.04699695	1.020810375	2.07536	-0.27468	0.47306	3299237.0	1776544988.976076	0.0	1.0	-1.0	-1.0	-1.0	-1.0	-1.0	-1.0	-1.0	-1.0	0.0	marker	peace	Peace	27	0418
-68609.655	-55191.869999999995	-104775.56999999999	-18503.1	0.0	0.0	0.0	0.0	0.0	0.0	0.0	0.0	0.0	0.0	0.0	0.0	0.0	0.0	146.0	0.0	0.02954094	-0.04699695	1.020810375	2.07536	-0.27468	0.47306	3299238.0	1776544988.976082	0.0	1.0	-1.0	-1.0	-1.0	-1.0	-1.0	-1.0	-1.0	-1.0	0.0	marker	peace	Peace	27	0418
-68711.4	-55204.604999999996	-104883.165	-18606.96	0.0	0.0	0.0	0.0	0.0	0.0	0.0	0.0	0.0	0.0	0.0	0.0	0.0	0.0	146.0	0.0	0.02954094	-0.04699695	1.020810375	2.07536	-0.27468	0.47306	3299239.0	1776544988.978459	0.0	1.0	-1.0	-1.0	-1.0	-1.0	-1.0	-1.0	-1.0	-1.0	0.0	marker	peace	Peace	27	0418
-68696.595	-55199.835	-104858.14499999999	-18602.28	0.0	0.0	0.0	0.0	0.0	0.0	0.0	0.0	0.0	0.0	0.0	0.0	0.0	0.0	146.0	0.0	0.02954094	-0.04699695	1.020810375	2.07536	-0.27468	0.47306	3299240.0	1776544988.978464	0.0	1.0	-1.0	-1.0	-1.0	-1.0	-1.0	-1.0	-1.0	-1.0	0.0	marker	peace	Peace	27	0418
-68606.595	-55181.924999999996	-104750.86499999999	-18499.815	0.0	0.0	0.0	0.0	0.0	0.0	0.0	0.0	0.0	0.0	0.0	0.0	0.0	0.0	146.0	0.0	0.02954094	-0.04699695	1.020810375	2.07536	-0.27468	0.47306	3299241.0	1776544988.98257	0.0	1.0	-1.0	-1.0	-1.0	-1.0	-1.0	-1.0	-1.0	-1.0	0.0	marker	peace	Peace	27	0418
-68672.565	-55171.439999999995	-104791.14	-18535.41	0.0	0.0	0.0	0.0	0.0	0.0	0.0	0.0	0.0	0.0	0.0	0.0	0.0	0.0	146.0	0.0	0.02954094	-0.04699695	1.020810375	2.07536	-0.27468	0.47306	3299242.0	1776544988.982588	0.0	1.0	-1.0	-1.0	-1.0	-1.0	-1.0	-1.0	-1.0	-1.0	0.0	marker	peace	Peace	27	0418
-68693.48999999999	-55178.415	-104848.01999999999	-18573.704999999998	0.0	0.0	0.0	0.0	0.0	0.0	0.0	0.0	0.0	0.0	0.0	0.0	0.0	0.0	146.0	0.0	0.03027336	-0.046813845	1.01696517	1.4191799999999999	-0.6714399999999999	0.7019599999999999	3299243.0	1776544988.986631	0.0	1.0	-1.0	-1.0	-1.0	-1.0	-1.0	-1.0	-1.0	-1.0	0.0	marker	peace	Peace	27	0418
-68763.915	-55194.345	-104983.47	-18682.065	0.0	0.0	0.0	0.0	0.0	0.0	0.0	0.0	0.0	0.0	0.0	0.0	0.0	0.0	146.0	0.0	0.03027336	-0.046813845	1.01696517	1.4191799999999999	-0.6714399999999999	0.7019599999999999	3299244.0	1776544988.986646	0.0	1.0	-1.0	-1.0	-1.0	-1.0	-1.0	-1.0	-1.0	-1.0	0.0	marker	peace	Peace	27	0418
-68736.645	-55207.979999999996	-104929.515	-18649.44	0.0	0.0	0.0	0.0	0.0	0.0	0.0	0.0	0.0	0.0	0.0	0.0	0.0	0.0	146.0	0.0	0.03027336	-0.046813845	1.01696517	1.4191799999999999	-0.6714399999999999	0.7019599999999999	3299245.0	1776544988.990609	0.0	1.0	-1.0	-1.0	-1.0	-1.0	-1.0	-1.0	-1.0	-1.0	0.0	marker	peace	Peace	27	0418
-68698.17	-55215.09	-104855.985	-18578.565	0.0	0.0	0.0	0.0	0.0	0.0	0.0	0.0	0.0	0.0	0.0	0.0	0.0	0.0	146.0	0.0	0.03027336	-0.046813845	1.01696517	1.4191799999999999	-0.6714399999999999	0.7019599999999999	3299246.0	1776544988.990625	0.0	1.0	-1.0	-1.0	-1.0	-1.0	-1.0	-1.0	-1.0	-1.0	0.0	marker	peace	Peace	27	0418
-68660.81999999999	-55215.18	-104838.25499999999	-18560.7	0.0	0.0	0.0	0.0	0.0	0.0	0.0	0.0	0.0	0.0	0.0	0.0	0.0	0.0	146.0	0.0	0.03027336	-0.046813845	1.01696517	1.4191799999999999	-0.6714399999999999	0.7019599999999999	3299247.0	1776544988.994653	0.0	1.0	-1.0	-1.0	-1.0	-1.0	-1.0	-1.0	-1.0	-1.0	0.0	marker	peace	Peace	27	0418
-68700.19499999999	-55218.329999999994	-104893.155	-18619.559999999998	0.0	0.0	0.0	0.0	0.0	0.0	0.0	0.0	0.0	0.0	0.0	0.0	0.0	0.0	146.0	0.0	0.03027336	-0.046813845	1.01696517	1.4191799999999999	-0.6714399999999999	0.7019599999999999	3299248.0	1776544988.994668	0.0	1.0	-1.0	-1.0	-1.0	-1.0	-1.0	-1.0	-1.0	-1.0	0.0	marker	peace	Peace	27	0418
-68663.025	-55211.805	-104834.43	-18551.114999999998	0.0	0.0	0.0	0.0	0.0	0.0	0.0	0.0	0.0	0.0	0.0	0.0	0.0	0.0	146.0	0.0	0.03027336	-0.046813845	1.01696517	1.4191799999999999	-0.6714399999999999	0.7019599999999999	3299249.0	1776544988.998521	0.0	1.0	-1.0	-1.0	-1.0	-1.0	-1.0	-1.0	-1.0	-1.0	0.0	marker	peace	Peace	27	0418
-68671.26	-55206.63	-104860.845	-18605.295	0.0	0.0	0.0	0.0	0.0	0.0	0.0	0.0	0.0	0.0	0.0	0.0	0.0	0.0	146.0	0.0	0.03027336	-0.046813845	1.01696517	1.4191799999999999	-0.6714399999999999	0.7019599999999999	3299250.0	1776544988.998536	0.0	1.0	-1.0	-1.0	-1.0	-1.0	-1.0	-1.0	-1.0	-1.0	0.0	marker	peace	Peace	27	0418
-68702.08499999999	-55201.59	-104901.56999999999	-18636.795	0.0	0.0	0.0	0.0	0.0	0.0	0.0	0.0	0.0	0.0	0.0	0.0	0.0	0.0	146.0	0.0	0.03027336	-0.046813845	1.01696517	1.4191799999999999	-0.6714399999999999	0.7019599999999999	3299251.0	1776544989.00267	0.0	1.0	-1.0	-1.0	-1.0	-1.0	-1.0	-1.0	-1.0	-1.0	0.0	marker	peace	Peace	27	0418
-68699.52	-55196.189999999995	-104882.53499999999	-18598.59	0.0	0.0	0.0	0.0	0.0	0.0	0.0	0.0	0.0	0.0	0.0	0.0	0.0	0.0	146.0	0.0	0.03027336	-0.046813845	1.01696517	1.4191799999999999	-0.6714399999999999	0.7019599999999999	3299252.0	1776544989.002686	0.0	1.0	-1.0	-1.0	-1.0	-1.0	-1.0	-1.0	-1.0	-1.0	0.0	marker	peace	Peace	27	0418
-68733.45	-55199.07	-104901.75	-18617.895	0.0	0.0	0.0	0.0	0.0	0.0	0.0	0.0	0.0	0.0	0.0	0.0	0.0	0.0	146.0	0.0	0.033630285	-0.045959355	1.01147202	1.31236	0.28994	0.77826	3299253.0	1776544989.007429	0.0	1.0	-1.0	-1.0	-1.0	-1.0	-1.0	-1.0	-1.0	-1.0	0.0	marker	peace	Peace	27	0418
-68740.38	-55221.795	-104895.045	-18624.195	0.0	0.0	0.0	0.0	0.0	0.0	0.0	0.0	0.0	0.0	0.0	0.0	0.0	0.0	146.0	0.0	0.033630285	-0.045959355	1.01147202	1.31236	0.28994	0.77826	3299254.0	1776544989.007445	0.0	1.0	-1.0	-1.0	-1.0	-1.0	-1.0	-1.0	-1.0	-1.0	0.0	marker	peace	Peace	27	0418
-68733.9	-55242.765	-104874.345	-18599.579999999998	0.0	0.0	0.0	0.0	0.0	0.0	0.0	0.0	0.0	0.0	0.0	0.0	0.0	0.0	146.0	0.0	0.033630285	-0.045959355	1.01147202	1.31236	0.28994	0.77826	3299255.0	1776544989.010685	0.0	1.0	-1.0	-1.0	-1.0	-1.0	-1.0	-1.0	-1.0	-1.0	0.0	marker	peace	Peace	27	0418
-68567.04	-55241.64	-104731.29	-18468.495	0.0	0.0	0.0	0.0	0.0	0.0	0.0	0.0	0.0	0.0	0.0	0.0	0.0	0.0	146.0	0.0	0.033630285	-0.045959355	1.01147202	1.31236	0.28994	0.77826	3299256.0	1776544989.010701	0.0	1.0	-1.0	-1.0	-1.0	-1.0	-1.0	-1.0	-1.0	-1.0	0.0	marker	peace	Peace	27	0418
-68500.62	-55230.57	-104667.65999999999	-18415.035	0.0	0.0	0.0	0.0	0.0	0.0	0.0	0.0	0.0	0.0	0.0	0.0	0.0	0.0	146.0	0.0	0.033630285	-0.045959355	1.01147202	1.31236	0.28994	0.77826	3299257.0	1776544989.016894	0.0	1.0	-1.0	-1.0	-1.0	-1.0	-1.0	-1.0	-1.0	-1.0	0.0	marker	peace	Peace	27	0418
-68681.52	-55231.74	-104840.595	-18591.39	0.0	0.0	0.0	0.0	0.0	0.0	0.0	0.0	0.0	0.0	0.0	0.0	0.0	0.0	146.0	0.0	0.033630285	-0.045959355	1.01147202	1.31236	0.28994	0.77826	3299258.0	1776544989.01691	0.0	1.0	-1.0	-1.0	-1.0	-1.0	-1.0	-1.0	-1.0	-1.0	0.0	marker	peace	Peace	27	0418
-68752.935	-55238.805	-104928.84	-18668.565	0.0	0.0	0.0	0.0	0.0	0.0	0.0	0.0	0.0	0.0	0.0	0.0	0.0	0.0	146.0	0.0	0.033630285	-0.045959355	1.01147202	1.31236	0.28994	0.77826	3299259.0	1776544989.018736	0.0	1.0	-1.0	-1.0	-1.0	-1.0	-1.0	-1.0	-1.0	-1.0	0.0	marker	peace	Peace	27	0418
-68759.19	-55247.174999999996	-104952.78	-18672.704999999998	0.0	0.0	0.0	0.0	0.0	0.0	0.0	0.0	0.0	0.0	0.0	0.0	0.0	0.0	146.0	0.0	0.033630285	-0.045959355	1.01147202	1.31236	0.28994	0.77826	3299260.0	1776544989.018752	0.0	1.0	-1.0	-1.0	-1.0	-1.0	-1.0	-1.0	-1.0	-1.0	0.0	marker	peace	Peace	27	0418
-68732.01	-55258.875	-104924.51999999999	-18626.489999999998	0.0	0.0	0.0	0.0	0.0	0.0	0.0	0.0	0.0	0.0	0.0	0.0	0.0	0.0	146.0	0.0	0.033630285	-0.045959355	1.01147202	1.31236	0.28994	0.77826	3299261.0	1776544989.022581	0.0	1.0	-1.0	-1.0	-1.0	-1.0	-1.0	-1.0	-1.0	-1.0	0.0	marker	peace	Peace	27	0418
-68687.28	-55264.005	-104860.26	-18571.094999999998	0.0	0.0	0.0	0.0	0.0	0.0	0.0	0.0	0.0	0.0	0.0	0.0	0.0	0.0	146.0	0.0	0.033630285	-0.045959355	1.01147202	1.31236	0.28994	0.77826	3299262.0	1776544989.022597	0.0	1.0	-1.0	-1.0	-1.0	-1.0	-1.0	-1.0	-1.0	-1.0	0.0	marker	peace	Peace	27	0418
-68641.785	-55261.17	-104769.62999999999	-18539.415	0.0	0.0	0.0	0.0	0.0	0.0	0.0	0.0	0.0	0.0	0.0	0.0	0.0	0.0	146.0	0.0	0.034973055	-0.05139147	1.00658922	0.30519999999999997	0.47306	0.04578	3299263.0	1776544989.026855	0.0	1.0	-1.0	-1.0	-1.0	-1.0	-1.0	-1.0	-1.0	-1.0	0.0	marker	peace	Peace	27	0418
-68691.735	-55266.93	-104784.795	-18575.55	0.0	0.0	0.0	0.0	0.0	0.0	0.0	0.0	0.0	0.0	0.0	0.0	0.0	0.0	146.0	0.0	0.034973055	-0.05139147	1.00658922	0.30519999999999997	0.47306	0.04578	3299264.0	1776544989.02687	0.0	1.0	-1.0	-1.0	-1.0	-1.0	-1.0	-1.0	-1.0	-1.0	0.0	marker	peace	Peace	27	0418
-68743.08	-55275.704999999994	-104868.18	-18594.945	0.0	0.0	0.0	0.0	0.0	0.0	0.0	0.0	0.0	0.0	0.0	0.0	0.0	0.0	146.0	0.0	0.034973055	-0.05139147	1.00658922	0.30519999999999997	0.47306	0.04578	3299265.0	1776544989.030725	0.0	1.0	-1.0	-1.0	-1.0	-1.0	-1.0	-1.0	-1.0	-1.0	0.0	marker	peace	Peace	27	0418
-68722.065	-55282.454999999994	-104874.39	-18588.87	0.0	0.0	0.0	0.0	0.0	0.0	0.0	0.0	0.0	0.0	0.0	0.0	0.0	0.0	146.0	0.0	0.034973055	-0.05139147	1.00658922	0.30519999999999997	0.47306	0.04578	3299266.0	1776544989.030741	0.0	1.0	-1.0	-1.0	-1.0	-1.0	-1.0	-1.0	-1.0	-1.0	0.0	marker	peace	Peace	27	0418
-68736.555	-55279.034999999996	-104887.89	-18631.844999999998	0.0	0.0	0.0	0.0	0.0	0.0	0.0	0.0	0.0	0.0	0.0	0.0	0.0	0.0	146.0	0.0	0.034973055	-0.05139147	1.00658922	0.30519999999999997	0.47306	0.04578	3299267.0	1776544989.036881	0.0	1.0	-1.0	-1.0	-1.0	-1.0	-1.0	-1.0	-1.0	-1.0	0.0	marker	peace	Peace	27	0418
-68718.105	-55271.43	-104917.995	-18655.065	0.0	0.0	0.0	0.0	0.0	0.0	0.0	0.0	0.0	0.0	0.0	0.0	0.0	0.0	146.0	0.0	0.034973055	-0.05139147	1.00658922	0.30519999999999997	0.47306	0.04578	3299268.0	1776544989.036887	0.0	1.0	-1.0	-1.0	-1.0	-1.0	-1.0	-1.0	-1.0	-1.0	0.0	marker	peace	Peace	27	0418
-68659.965	-55272.06	-104921.37	-18611.19	0.0	0.0	0.0	0.0	0.0	0.0	0.0	0.0	0.0	0.0	0.0	0.0	0.0	0.0	146.0	0.0	0.034973055	-0.05139147	1.00658922	0.30519999999999997	0.47306	0.04578	3299269.0	1776544989.038706	0.0	1.0	-1.0	-1.0	-1.0	-1.0	-1.0	-1.0	-1.0	-1.0	0.0	marker	peace	Peace	27	0418
-68705.145	-55273.095	-104902.78499999999	-18569.34	0.0	0.0	0.0	0.0	0.0	0.0	0.0	0.0	0.0	0.0	0.0	0.0	0.0	0.0	146.0	0.0	0.034973055	-0.05139147	1.00658922	0.30519999999999997	0.47306	0.04578	3299270.0	1776544989.038721	0.0	1.0	-1.0	-1.0	-1.0	-1.0	-1.0	-1.0	-1.0	-1.0	0.0	marker	peace	Peace	27	0418
-68660.595	-55272.195	-104827.00499999999	-18529.065	0.0	0.0	0.0	0.0	0.0	0.0	0.0	0.0	0.0	0.0	0.0	0.0	0.0	0.0	146.0	0.0	0.034973055	-0.05139147	1.00658922	0.30519999999999997	0.47306	0.04578	3299271.0	1776544989.044572	0.0	1.0	-1.0	-1.0	-1.0	-1.0	-1.0	-1.0	-1.0	-1.0	0.0	marker	peace	Peace	27	0418
-68663.79	-55270.979999999996	-104823.26999999999	-18547.605	0.0	0.0	0.0	0.0	0.0	0.0	0.0	0.0	0.0	0.0	0.0	0.0	0.0	0.0	146.0	0.0	0.034973055	-0.05139147	1.00658922	0.30519999999999997	0.47306	0.04578	3299272.0	1776544989.044587	0.0	1.0	-1.0	-1.0	-1.0	-1.0	-1.0	-1.0	-1.0	-1.0	0.0	marker	peace	Peace	27	0418
-68753.79	-55246.5	-104893.73999999999	-18641.52	0.0	0.0	0.0	0.0	0.0	0.0	0.0	0.0	0.0	0.0	0.0	0.0	0.0	0.0	146.0	0.0	0.03002922	-0.053161485	1.01427963	1.526	0.15259999999999999	0.763	3299273.0	1776544989.046727	0.0	1.0	-1.0	-1.0	-1.0	-1.0	-1.0	-1.0	-1.0	-1.0	0.0	marker	peace	Peace	27	0418
-68719.59	-55202.67	-104811.56999999999	-18593.55	0.0	0.0	0.0	0.0	0.0	0.0	0.0	0.0	0.0	0.0	0.0	0.0	0.0	0.0	146.0	0.0	0.03002922	-0.053161485	1.01427963	1.526	0.15259999999999999	0.763	3299274.0	1776544989.046742	0.0	1.0	-1.0	-1.0	-1.0	-1.0	-1.0	-1.0	-1.0	-1.0	0.0	marker	peace	Peace	27	0418
-68711.355	-55192.994999999995	-104839.605	-18598.274999999998	0.0	0.0	0.0	0.0	0.0	0.0	0.0	0.0	0.0	0.0	0.0	0.0	0.0	0.0	146.0	0.0	0.03002922	-0.053161485	1.01427963	1.526	0.15259999999999999	0.763	3299275.0	1776544989.054118	0.0	1.0	-1.0	-1.0	-1.0	-1.0	-1.0	-1.0	-1.0	-1.0	0.0	marker	peace	Peace	27	0418
-68721.48	-55195.29	-104952.69	-18637.155	0.0	0.0	0.0	0.0	0.0	0.0	0.0	0.0	0.0	0.0	0.0	0.0	0.0	0.0	146.0	0.0	0.03002922	-0.053161485	1.01427963	1.526	0.15259999999999999	0.763	3299276.0	1776544989.054133	0.0	1.0	-1.0	-1.0	-1.0	-1.0	-1.0	-1.0	-1.0	-1.0	0.0	marker	peace	Peace	27	0418
-68696.145	-55187.055	-104919.435	-18620.505	0.0	0.0	0.0	0.0	0.0	0.0	0.0	0.0	0.0	0.0	0.0	0.0	0.0	0.0	146.0	0.0	0.03002922	-0.053161485	1.01427963	1.526	0.15259999999999999	0.763	3299277.0	1776544989.054779	0.0	1.0	-1.0	-1.0	-1.0	-1.0	-1.0	-1.0	-1.0	-1.0	0.0	marker	peace	Peace	27	0418
-68695.02	-55177.784999999996	-104878.89	-18616.005	0.0	0.0	0.0	0.0	0.0	0.0	0.0	0.0	0.0	0.0	0.0	0.0	0.0	0.0	146.0	0.0	0.03002922	-0.053161485	1.01427963	1.526	0.15259999999999999	0.763	3299278.0	1776544989.054806	0.0	1.0	-1.0	-1.0	-1.0	-1.0	-1.0	-1.0	-1.0	-1.0	0.0	marker	peace	Peace	27	0418
-68714.55	-55187.415	-104875.965	-18604.98	0.0	0.0	0.0	0.0	0.0	0.0	0.0	0.0	0.0	0.0	0.0	0.0	0.0	0.0	146.0	0.0	0.03002922	-0.053161485	1.01427963	1.526	0.15259999999999999	0.763	3299279.0	1776544989.063584	0.0	1.0	-1.0	-1.0	-1.0	-1.0	-1.0	-1.0	-1.0	-1.0	0.0	marker	peace	Peace	27	0418
-68720.355	-55195.92	-104871.33	-18588.329999999998	0.0	0.0	0.0	0.0	0.0	0.0	0.0	0.0	0.0	0.0	0.0	0.0	0.0	0.0	146.0	0.0	0.03002922	-0.053161485	1.01427963	1.526	0.15259999999999999	0.763	3299280.0	1776544989.063599	0.0	1.0	-1.0	-1.0	-1.0	-1.0	-1.0	-1.0	-1.0	-1.0	0.0	marker	peace	Peace	27	0418
-68714.595	-55189.799999999996	-104880.69	-18591.795	0.0	0.0	0.0	0.0	0.0	0.0	0.0	0.0	0.0	0.0	0.0	0.0	0.0	0.0	146.0	0.0	0.03002922	-0.053161485	1.01427963	1.526	0.15259999999999999	0.763	3299281.0	1776544989.063614	0.0	1.0	-1.0	-1.0	-1.0	-1.0	-1.0	-1.0	-1.0	-1.0	0.0	marker	peace	Peace	27	0418
-68693.67	-55189.125	-104862.375	-18574.425	0.0	0.0	0.0	0.0	0.0	0.0	0.0	0.0	0.0	0.0	0.0	0.0	0.0	0.0	146.0	0.0	0.03002922	-0.053161485	1.01427963	1.526	0.15259999999999999	0.763	3299282.0	1776544989.063623	0.0	1.0	-1.0	-1.0	-1.0	-1.0	-1.0	-1.0	-1.0	-1.0	0.0	marker	peace	Peace	27	0418
-68649.255	-55185.93	-104802.345	-18545.805	0.0	0.0	0.0	0.0	0.0	0.0	0.0	0.0	0.0	0.0	0.0	0.0	0.0	0.0	146.0	0.0	0.03076164	-0.05322252	1.0199558850000001	1.57178	0.27468	0.25942	3299283.0	1776544989.067027	0.0	1.0	-1.0	-1.0	-1.0	-1.0	-1.0	-1.0	-1.0	-1.0	0.0	marker	peace	Peace	27	0418
-68629.815	-55178.505	-104794.56	-18531.675	0.0	0.0	0.0	0.0	0.0	0.0	0.0	0.0	0.0	0.0	0.0	0.0	0.0	0.0	146.0	0.0	0.03076164	-0.05322252	1.0199558850000001	1.57178	0.27468	0.25942	3299284.0	1776544989.067042	0.0	1.0	-1.0	-1.0	-1.0	-1.0	-1.0	-1.0	-1.0	-1.0	0.0	marker	peace	Peace	27	0418
-68664.375	-55173.6	-104864.22	-18568.215	0.0	0.0	0.0	0.0	0.0	0.0	0.0	0.0	0.0	0.0	0.0	0.0	0.0	0.0	146.0	0.0	0.03076164	-0.05322252	1.0199558850000001	1.57178	0.27468	0.25942	3299285.0	1776544989.070953	0.0	1.0	-1.0	-1.0	-1.0	-1.0	-1.0	-1.0	-1.0	-1.0	0.0	marker	peace	Peace	27	0418
-68672.11499999999	-55172.34	-104855.04	-18567.18	0.0	0.0	0.0	0.0	0.0	0.0	0.0	0.0	0.0	0.0	0.0	0.0	0.0	0.0	146.0	0.0	0.03076164	-0.05322252	1.0199558850000001	1.57178	0.27468	0.25942	3299286.0	1776544989.070968	0.0	1.0	-1.0	-1.0	-1.0	-1.0	-1.0	-1.0	-1.0	-1.0	0.0	marker	peace	Peace	27	0418
-68591.52	-55171.575	-104743.17	-18484.515	0.0	0.0	0.0	0.0	0.0	0.0	0.0	0.0	0.0	0.0	0.0	0.0	0.0	0.0	146.0	0.0	0.03076164	-0.05322252	1.0199558850000001	1.57178	0.27468	0.25942	3299287.0	1776544989.074844	0.0	1.0	-1.0	-1.0	-1.0	-1.0	-1.0	-1.0	-1.0	-1.0	0.0	marker	peace	Peace	27	0418
-68595.97499999999	-55174.365	-104762.43	-18499.86	0.0	0.0	0.0	0.0	0.0	0.0	0.0	0.0	0.0	0.0	0.0	0.0	0.0	0.0	146.0	0.0	0.03076164	-0.05322252	1.0199558850000001	1.57178	0.27468	0.25942	3299288.0	1776544989.074859	0.0	1.0	-1.0	-1.0	-1.0	-1.0	-1.0	-1.0	-1.0	-1.0	0.0	marker	peace	Peace	27	0418
-68747.94	-55194.39	-104933.47499999999	-18661.454999999998	0.0	0.0	0.0	0.0	0.0	0.0	0.0	0.0	0.0	0.0	0.0	0.0	0.0	0.0	146.0	0.0	0.03076164	-0.05322252	1.0199558850000001	1.57178	0.27468	0.25942	3299289.0	1776544989.078897	0.0	1.0	-1.0	-1.0	-1.0	-1.0	-1.0	-1.0	-1.0	-1.0	0.0	marker	peace	Peace	27	0418
-68772.19499999999	-55191.15	-104951.7	-18636.03	0.0	0.0	0.0	0.0	0.0	0.0	0.0	0.0	0.0	0.0	0.0	0.0	0.0	0.0	146.0	0.0	0.03076164	-0.05322252	1.0199558850000001	1.57178	0.27468	0.25942	3299290.0	1776544989.078912	0.0	1.0	-1.0	-1.0	-1.0	-1.0	-1.0	-1.0	-1.0	-1.0	0.0	marker	peace	Peace	27	0418
-68762.88	-55187.865	-104938.605	-18617.895	0.0	0.0	0.0	0.0	0.0	0.0	0.0	0.0	0.0	0.0	0.0	0.0	0.0	0.0	146.0	0.0	0.03076164	-0.05322252	1.0199558850000001	1.57178	0.27468	0.25942	3299291.0	1776544989.083019	0.0	1.0	-1.0	-1.0	-1.0	-1.0	-1.0	-1.0	-1.0	-1.0	0.0	marker	peace	Peace	27	0418
-68722.56	-55185.345	-104902.47	-18605.7	0.0	0.0	0.0	0.0	0.0	0.0	0.0	0.0	0.0	0.0	0.0	0.0	0.0	0.0	146.0	0.0	0.03076164	-0.05322252	1.0199558850000001	1.57178	0.27468	0.25942	3299292.0	1776544989.083027	0.0	1.0	-1.0	-1.0	-1.0	-1.0	-1.0	-1.0	-1.0	-1.0	0.0	marker	peace	Peace	27	0418
-68646.06	-55184.895	-104844.28499999999	-18576.855	0.0	0.0	0.0	0.0	0.0	0.0	0.0	0.0	0.0	0.0	0.0	0.0	0.0	0.0	146.0	0.0	0.032775795	-0.056945655	1.02123762	2.4110799999999997	-0.24416	-0.39676	3299293.0	1776544989.086978	0.0	1.0	-1.0	-1.0	-1.0	-1.0	-1.0	-1.0	-1.0	-1.0	0.0	marker	peace	Peace	27	0418
-68731.965	-55198.125	-104900.12999999999	-18641.835	0.0	0.0	0.0	0.0	0.0	0.0	0.0	0.0	0.0	0.0	0.0	0.0	0.0	0.0	146.0	0.0	0.032775795	-0.056945655	1.02123762	2.4110799999999997	-0.24416	-0.39676	3299294.0	1776544989.086994	0.0	1.0	-1.0	-1.0	-1.0	-1.0	-1.0	-1.0	-1.0	-1.0	0.0	marker	peace	Peace	27	0418
-68740.47	-55205.729999999996	-104908.995	-18657.765	0.0	0.0	0.0	0.0	0.0	0.0	0.0	0.0	0.0	0.0	0.0	0.0	0.0	0.0	146.0	0.0	0.032775795	-0.056945655	1.02123762	2.4110799999999997	-0.24416	-0.39676	3299295.0	1776544989.090901	0.0	1.0	-1.0	-1.0	-1.0	-1.0	-1.0	-1.0	-1.0	-1.0	0.0	marker	peace	Peace	27	0418
-68732.91	-55201.68	-104862.78	-18628.38	0.0	0.0	0.0	0.0	0.0	0.0	0.0	0.0	0.0	0.0	0.0	0.0	0.0	0.0	146.0	0.0	0.032775795	-0.056945655	1.02123762	2.4110799999999997	-0.24416	-0.39676	3299296.0	1776544989.090915	0.0	1.0	-1.0	-1.0	-1.0	-1.0	-1.0	-1.0	-1.0	-1.0	0.0	marker	peace	Peace	27	0418
-68659.83	-55184.939999999995	-104768.955	-18542.16	0.0	0.0	0.0	0.0	0.0	0.0	0.0	0.0	0.0	0.0	0.0	0.0	0.0	0.0	146.0	0.0	0.032775795	-0.056945655	1.02123762	2.4110799999999997	-0.24416	-0.39676	3299297.0	1776544989.094942	0.0	1.0	-1.0	-1.0	-1.0	-1.0	-1.0	-1.0	-1.0	-1.0	0.0	marker	peace	Peace	27	0418
-68673.105	-55175.13	-104865.165	-18587.385	0.0	0.0	0.0	0.0	0.0	0.0	0.0	0.0	0.0	0.0	0.0	0.0	0.0	0.0	146.0	0.0	0.032775795	-0.056945655	1.02123762	2.4110799999999997	-0.24416	-0.39676	3299298.0	1776544989.094957	0.0	1.0	-1.0	-1.0	-1.0	-1.0	-1.0	-1.0	-1.0	-1.0	0.0	marker	peace	Peace	27	0418
-68739.39	-55163.744999999995	-104933.7	-18645.48	0.0	0.0	0.0	0.0	0.0	0.0	0.0	0.0	0.0	0.0	0.0	0.0	0.0	0.0	146.0	0.0	0.032775795	-0.056945655	1.02123762	2.4110799999999997	-0.24416	-0.39676	3299299.0	1776544989.099043	0.0	1.0	-1.0	-1.0	-1.0	-1.0	-1.0	-1.0	-1.0	-1.0	0.0	marker	peace	Peace	27	0418
-68686.69499999999	-55161.99	-104875.605	-18582.03	0.0	0.0	0.0	0.0	0.0	0.0	0.0	0.0	0.0	0.0	0.0	0.0	0.0	0.0	146.0	0.0	0.032775795	-0.056945655	1.02123762	2.4110799999999997	-0.24416	-0.39676	3299300.0	1776544989.099058	0.0	1.0	-1.0	-1.0	-1.0	-1.0	-1.0	-1.0	-1.0	-1.0	0.0	marker	peace	Peace	27	0418
-68664.015	-55168.335	-104834.97	-18562.32	0.0	0.0	0.0	0.0	0.0	0.0	0.0	0.0	0.0	0.0	0.0	0.0	0.0	0.0	146.0	0.0	0.032775795	-0.056945655	1.02123762	2.4110799999999997	-0.24416	-0.39676	3299301.0	1776544989.102959	0.0	1.0	-1.0	-1.0	-1.0	-1.0	-1.0	-1.0	-1.0	-1.0	0.0	marker	peace	Peace	27	0418
-68650.69499999999	-55171.395	-104808.87	-18534.239999999998	0.0	0.0	0.0	0.0	0.0	0.0	0.0	0.0	0.0	0.0	0.0	0.0	0.0	0.0	146.0	0.0	0.032775795	-0.056945655	1.02123762	2.4110799999999997	-0.24416	-0.39676	3299302.0	1776544989.102974	0.0	1.0	-1.0	-1.0	-1.0	-1.0	-1.0	-1.0	-1.0	-1.0	0.0	marker	peace	Peace	27	0418
-68682.51	-55180.17	-104839.2	-18538.695	0.0	0.0	0.0	0.0	0.0	0.0	0.0	0.0	0.0	0.0	0.0	0.0	0.0	0.0	146.0	0.0	0.03393546	-0.05725083	1.012997895	3.0672599999999997	0.39676	-1.19028	3299303.0	1776544989.109919	0.0	1.0	-1.0	-1.0	-1.0	-1.0	-1.0	-1.0	-1.0	-1.0	0.0	marker	peace	Peace	27	0418
-68772.465	-55196.009999999995	-104915.205	-18624.329999999998	0.0	0.0	0.0	0.0	0.0	0.0	0.0	0.0	0.0	0.0	0.0	0.0	0.0	0.0	146.0	0.0	0.03393546	-0.05725083	1.012997895	3.0672599999999997	0.39676	-1.19028	3299304.0	1776544989.109941	0.0	1.0	-1.0	-1.0	-1.0	-1.0	-1.0	-1.0	-1.0	-1.0	0.0	marker	peace	Peace	27	0418
-68737.05	-55202.31	-104898.915	-18627.39	0.0	0.0	0.0	0.0	0.0	0.0	0.0	0.0	0.0	0.0	0.0	0.0	0.0	0.0	146.0	0.0	0.03393546	-0.05725083	1.012997895	3.0672599999999997	0.39676	-1.19028	3299305.0	1776544989.112796	0.0	1.0	-1.0	-1.0	-1.0	-1.0	-1.0	-1.0	-1.0	-1.0	0.0	marker	peace	Peace	27	0418
-68717.745	-55202.579999999994	-104910.795	-18648.045	0.0	0.0	0.0	0.0	0.0	0.0	0.0	0.0	0.0	0.0	0.0	0.0	0.0	0.0	146.0	0.0	0.03393546	-0.05725083	1.012997895	3.0672599999999997	0.39676	-1.19028	3299306.0	1776544989.112827	0.0	1.0	-1.0	-1.0	-1.0	-1.0	-1.0	-1.0	-1.0	-1.0	0.0	marker	peace	Peace	27	0418
-68739.61499999999	-55212.93	-104897.06999999999	-18634.815	0.0	0.0	0.0	0.0	0.0	0.0	0.0	0.0	0.0	0.0	0.0	0.0	0.0	0.0	146.0	0.0	0.03393546	-0.05725083	1.012997895	3.0672599999999997	0.39676	-1.19028	3299307.0	1776544989.115957	0.0	1.0	-1.0	-1.0	-1.0	-1.0	-1.0	-1.0	-1.0	-1.0	0.0	marker	peace	Peace	27	0418
-68750.415	-55208.43	-104877.495	-18601.11	0.0	0.0	0.0	0.0	0.0	0.0	0.0	0.0	0.0	0.0	0.0	0.0	0.0	0.0	146.0	0.0	0.03393546	-0.05725083	1.012997895	3.0672599999999997	0.39676	-1.19028	3299308.0	1776544989.115981	0.0	1.0	-1.0	-1.0	-1.0	-1.0	-1.0	-1.0	-1.0	-1.0	0.0	marker	peace	Peace	27	0418
-68711.31	-55207.665	-104852.34	-18594.18	0.0	0.0	0.0	0.0	0.0	0.0	0.0	0.0	0.0	0.0	0.0	0.0	0.0	0.0	146.0	0.0	0.03393546	-0.05725083	1.012997895	3.0672599999999997	0.39676	-1.19028	3299309.0	1776544989.119014	0.0	1.0	-1.0	-1.0	-1.0	-1.0	-1.0	-1.0	-1.0	-1.0	0.0	marker	peace	Peace	27	0418
-68671.305	-55206.045	-104826.95999999999	-18588.69	0.0	0.0	0.0	0.0	0.0	0.0	0.0	0.0	0.0	0.0	0.0	0.0	0.0	0.0	146.0	0.0	0.03393546	-0.05725083	1.012997895	3.0672599999999997	0.39676	-1.19028	3299310.0	1776544989.11903	0.0	1.0	-1.0	-1.0	-1.0	-1.0	-1.0	-1.0	-1.0	-1.0	0.0	marker	peace	Peace	27	0418
-68648.08499999999	-55203.075	-104831.955	-18576.765	0.0	0.0	0.0	0.0	0.0	0.0	0.0	0.0	0.0	0.0	0.0	0.0	0.0	0.0	146.0	0.0	0.03393546	-0.05725083	1.012997895	3.0672599999999997	0.39676	-1.19028	3299311.0	1776544989.122983	0.0	1.0	-1.0	-1.0	-1.0	-1.0	-1.0	-1.0	-1.0	-1.0	0.0	marker	peace	Peace	27	0418
-68670.09	-55206.54	-104858.955	-18616.184999999998	0.0	0.0	0.0	0.0	0.0	0.0	0.0	0.0	0.0	0.0	0.0	0.0	0.0	0.0	146.0	0.0	0.03393546	-0.05725083	1.012997895	3.0672599999999997	0.39676	-1.19028	3299312.0	1776544989.123	0.0	1.0	-1.0	-1.0	-1.0	-1.0	-1.0	-1.0	-1.0	-1.0	0.0	marker	peace	Peace	27	0418
-68700.59999999999	-55226.25	-104833.53	-18584.73	0.0	0.0	0.0	0.0	0.0	0.0	0.0	0.0	0.0	0.0	0.0	0.0	0.0	0.0	146.0	0.0	0.033630285	-0.05639634	1.01134995	3.4945399999999998	0.6409199999999999	-0.82404	3299313.0	1776544989.127008	0.0	1.0	-1.0	-1.0	-1.0	-1.0	-1.0	-1.0	-1.0	-1.0	0.0	marker	peace	Peace	27	0418
-68688.98999999999	-55235.655	-104804.81999999999	-18558.09	0.0	0.0	0.0	0.0	0.0	0.0	0.0	0.0	0.0	0.0	0.0	0.0	0.0	0.0	146.0	0.0	0.033630285	-0.05639634	1.01134995	3.4945399999999998	0.6409199999999999	-0.82404	3299314.0	1776544989.127021	0.0	1.0	-1.0	-1.0	-1.0	-1.0	-1.0	-1.0	-1.0	-1.0	0.0	marker	peace	Peace	27	0418
-68666.715	-55230.119999999995	-104821.01999999999	-18561.195	0.0	0.0	0.0	0.0	0.0	0.0	0.0	0.0	0.0	0.0	0.0	0.0	0.0	0.0	146.0	0.0	0.033630285	-0.05639634	1.01134995	3.4945399999999998	0.6409199999999999	-0.82404	3299315.0	1776544989.13282	0.0	1.0	-1.0	-1.0	-1.0	-1.0	-1.0	-1.0	-1.0	-1.0	0.0	marker	peace	Peace	27	0418
-68643.18	-55225.125	-104862.64499999999	-18565.829999999998	0.0	0.0	0.0	0.0	0.0	0.0	0.0	0.0	0.0	0.0	0.0	0.0	0.0	0.0	146.0	0.0	0.033630285	-0.05639634	1.01134995	3.4945399999999998	0.6409199999999999	-0.82404	3299316.0	1776544989.132845	0.0	1.0	-1.0	-1.0	-1.0	-1.0	-1.0	-1.0	-1.0	-1.0	0.0	marker	peace	Peace	27	0418
-68648.355	-55220.13	-104849.09999999999	-18574.649999999998	0.0	0.0	0.0	0.0	0.0	0.0	0.0	0.0	0.0	0.0	0.0	0.0	0.0	0.0	146.0	0.0	0.033630285	-0.05639634	1.01134995	3.4945399999999998	0.6409199999999999	-0.82404	3299317.0	1776544989.135064	0.0	1.0	-1.0	-1.0	-1.0	-1.0	-1.0	-1.0	-1.0	-1.0	0.0	marker	peace	Peace	27	0418
-68717.205	-55224.134999999995	-104897.15999999999	-18629.91	0.0	0.0	0.0	0.0	0.0	0.0	0.0	0.0	0.0	0.0	0.0	0.0	0.0	0.0	146.0	0.0	0.033630285	-0.05639634	1.01134995	3.4945399999999998	0.6409199999999999	-0.82404	3299318.0	1776544989.135089	0.0	1.0	-1.0	-1.0	-1.0	-1.0	-1.0	-1.0	-1.0	-1.0	0.0	marker	peace	Peace	27	0418
-68681.34	-55229.085	-104874.56999999999	-18593.82	0.0	0.0	0.0	0.0	0.0	0.0	0.0	0.0	0.0	0.0	0.0	0.0	0.0	0.0	146.0	0.0	0.033630285	-0.05639634	1.01134995	3.4945399999999998	0.6409199999999999	-0.82404	3299319.0	1776544989.139158	0.0	1.0	-1.0	-1.0	-1.0	-1.0	-1.0	-1.0	-1.0	-1.0	0.0	marker	peace	Peace	27	0418
-68696.955	-55222.965	-104884.65	-18579.645	0.0	0.0	0.0	0.0	0.0	0.0	0.0	0.0	0.0	0.0	0.0	0.0	0.0	0.0	146.0	0.0	0.033630285	-0.05639634	1.01134995	3.4945399999999998	0.6409199999999999	-0.82404	3299320.0	1776544989.139171	0.0	1.0	-1.0	-1.0	-1.0	-1.0	-1.0	-1.0	-1.0	-1.0	0.0	marker	peace	Peace	27	0418
-68767.605	-55232.729999999996	-104932.215	-18647.684999999998	0.0	0.0	0.0	0.0	0.0	0.0	0.0	0.0	0.0	0.0	0.0	0.0	0.0	0.0	146.0	0.0	0.033630285	-0.05639634	1.01134995	3.4945399999999998	0.6409199999999999	-0.82404	3299321.0	1776544989.14308	0.0	1.0	-1.0	-1.0	-1.0	-1.0	-1.0	-1.0	-1.0	-1.0	0.0	marker	peace	Peace	27	0418
-68727.375	-55236.735	-104880.59999999999	-18610.829999999998	0.0	0.0	0.0	0.0	0.0	0.0	0.0	0.0	0.0	0.0	0.0	0.0	0.0	0.0	146.0	0.0	0.033630285	-0.05639634	1.01134995	3.4945399999999998	0.6409199999999999	-0.82404	3299322.0	1776544989.143096	0.0	1.0	-1.0	-1.0	-1.0	-1.0	-1.0	-1.0	-1.0	-1.0	0.0	marker	peace	Peace	27	0418
-68728.815	-55233.765	-104863.545	-18590.625	0.0	0.0	0.0	0.0	0.0	0.0	0.0	0.0	0.0	0.0	0.0	0.0	0.0	0.0	146.0	0.0	0.029724045	-0.055969095	1.0173313800000001	3.7386999999999997	0.4578	-1.6022999999999998	3299323.0	1776544989.147092	0.0	1.0	-1.0	-1.0	-1.0	-1.0	-1.0	-1.0	-1.0	-1.0	0.0	marker	peace	Peace	27	0418
-68707.98	-55225.079999999994	-104873.48999999999	-18593.19	0.0	0.0	0.0	0.0	0.0	0.0	0.0	0.0	0.0	0.0	0.0	0.0	0.0	0.0	146.0	0.0	0.029724045	-0.055969095	1.0173313800000001	3.7386999999999997	0.4578	-1.6022999999999998	3299324.0	1776544989.147119	0.0	1.0	-1.0	-1.0	-1.0	-1.0	-1.0	-1.0	-1.0	-1.0	0.0	marker	peace	Peace	27	0418
-68721.165	-55226.835	-104901.61499999999	-18608.715	0.0	0.0	0.0	0.0	0.0	0.0	0.0	0.0	0.0	0.0	0.0	0.0	0.0	0.0	146.0	0.0	0.029724045	-0.055969095	1.0173313800000001	3.7386999999999997	0.4578	-1.6022999999999998	3299325.0	1776544989.151144	0.0	1.0	-1.0	-1.0	-1.0	-1.0	-1.0	-1.0	-1.0	-1.0	0.0	marker	peace	Peace	27	0418
-68723.37	-55228.185	-104903.81999999999	-18615.329999999998	0.0	0.0	0.0	0.0	0.0	0.0	0.0	0.0	0.0	0.0	0.0	0.0	0.0	0.0	146.0	0.0	0.029724045	-0.055969095	1.0173313800000001	3.7386999999999997	0.4578	-1.6022999999999998	3299326.0	1776544989.151171	0.0	1.0	-1.0	-1.0	-1.0	-1.0	-1.0	-1.0	-1.0	-1.0	0.0	marker	peace	Peace	27	0418
-68695.11	-55236.375	-104858.01	-18591.165	0.0	0.0	0.0	0.0	0.0	0.0	0.0	0.0	0.0	0.0	0.0	0.0	0.0	0.0	146.0	0.0	0.029724045	-0.055969095	1.0173313800000001	3.7386999999999997	0.4578	-1.6022999999999998	3299327.0	1776544989.155041	0.0	1.0	-1.0	-1.0	-1.0	-1.0	-1.0	-1.0	-1.0	-1.0	0.0	marker	peace	Peace	27	0418
-68683.095	-55242.585	-104841.9	-18596.385	0.0	0.0	0.0	0.0	0.0	0.0	0.0	0.0	0.0	0.0	0.0	0.0	0.0	0.0	146.0	0.0	0.029724045	-0.055969095	1.0173313800000001	3.7386999999999997	0.4578	-1.6022999999999998	3299328.0	1776544989.155062	0.0	1.0	-1.0	-1.0	-1.0	-1.0	-1.0	-1.0	-1.0	-1.0	0.0	marker	peace	Peace	27	0418
-68699.025	-55242.09	-104860.44	-18613.079999999998	0.0	0.0	0.0	0.0	0.0	0.0	0.0	0.0	0.0	0.0	0.0	0.0	0.0	0.0	146.0	0.0	0.029724045	-0.055969095	1.0173313800000001	3.7386999999999997	0.4578	-1.6022999999999998	3299329.0	1776544989.161394	0.0	1.0	-1.0	-1.0	-1.0	-1.0	-1.0	-1.0	-1.0	-1.0	0.0	marker	peace	Peace	27	0418
-68705.595	-55250.1	-104867.19	-18596.925	0.0	0.0	0.0	0.0	0.0	0.0	0.0	0.0	0.0	0.0	0.0	0.0	0.0	0.0	146.0	0.0	0.029724045	-0.055969095	1.0173313800000001	3.7386999999999997	0.4578	-1.6022999999999998	3299330.0	1776544989.161407	0.0	1.0	-1.0	-1.0	-1.0	-1.0	-1.0	-1.0	-1.0	-1.0	0.0	marker	peace	Peace	27	0418
-68691.69	-55259.415	-104863.76999999999	-18583.29	0.0	0.0	0.0	0.0	0.0	0.0	0.0	0.0	0.0	0.0	0.0	0.0	0.0	0.0	146.0	0.0	0.029724045	-0.055969095	1.0173313800000001	3.7386999999999997	0.4578	-1.6022999999999998	3299331.0	1776544989.163153	0.0	1.0	-1.0	-1.0	-1.0	-1.0	-1.0	-1.0	-1.0	-1.0	0.0	marker	peace	Peace	27	0418
-68680.485	-55259.415	-104851.98	-18561.69	0.0	0.0	0.0	0.0	0.0	0.0	0.0	0.0	0.0	0.0	0.0	0.0	0.0	0.0	146.0	0.0	0.029724045	-0.055969095	1.0173313800000001	3.7386999999999997	0.4578	-1.6022999999999998	3299332.0	1776544989.163163	0.0	1.0	-1.0	-1.0	-1.0	-1.0	-1.0	-1.0	-1.0	-1.0	0.0	marker	peace	Peace	27	0418
-68679.765	-55243.755	-104841.315	-18554.219999999998	0.0	0.0	0.0	0.0	0.0	0.0	0.0	0.0	0.0	0.0	0.0	0.0	0.0	0.0	146.0	0.0	0.030212325	-0.05725083	1.01757552	4.059159999999999	0.2289	-2.1364	3299333.0	1776544989.167185	0.0	1.0	-1.0	-1.0	-1.0	-1.0	-1.0	-1.0	-1.0	-1.0	0.0	marker	peace	Peace	27	0418
-68677.02	-55230.93	-104846.805	-18562.23	0.0	0.0	0.0	0.0	0.0	0.0	0.0	0.0	0.0	0.0	0.0	0.0	0.0	0.0	146.0	0.0	0.030212325	-0.05725083	1.01757552	4.059159999999999	0.2289	-2.1364	3299334.0	1776544989.167197	0.0	1.0	-1.0	-1.0	-1.0	-1.0	-1.0	-1.0	-1.0	-1.0	0.0	marker	peace	Peace	27	0418
-68632.245	-55222.65	-104804.415	-18530.37	0.0	0.0	0.0	0.0	0.0	0.0	0.0	0.0	0.0	0.0	0.0	0.0	0.0	0.0	146.0	0.0	0.030212325	-0.05725083	1.01757552	4.059159999999999	0.2289	-2.1364	3299335.0	1776544989.172926	0.0	1.0	-1.0	-1.0	-1.0	-1.0	-1.0	-1.0	-1.0	-1.0	0.0	marker	peace	Peace	27	0418
-68599.575	-55223.909999999996	-104775.345	-18507.6	0.0	0.0	0.0	0.0	0.0	0.0	0.0	0.0	0.0	0.0	0.0	0.0	0.0	0.0	146.0	0.0	0.030212325	-0.05725083	1.01757552	4.059159999999999	0.2289	-2.1364	3299336.0	1776544989.172941	0.0	1.0	-1.0	-1.0	-1.0	-1.0	-1.0	-1.0	-1.0	-1.0	0.0	marker	peace	Peace	27	0418
-68586.48	-55238.085	-104754.23999999999	-18494.594999999998	0.0	0.0	0.0	0.0	0.0	0.0	0.0	0.0	0.0	0.0	0.0	0.0	0.0	0.0	146.0	0.0	0.030212325	-0.05725083	1.01757552	4.059159999999999	0.2289	-2.1364	3299337.0	1776544989.177237	0.0	1.0	-1.0	-1.0	-1.0	-1.0	-1.0	-1.0	-1.0	-1.0	0.0	marker	peace	Peace	27	0418
-68733.315	-55259.189999999995	-104885.28	-18621.27	0.0	0.0	0.0	0.0	0.0	0.0	0.0	0.0	0.0	0.0	0.0	0.0	0.0	0.0	146.0	0.0	0.030212325	-0.05725083	1.01757552	4.059159999999999	0.2289	-2.1364	3299338.0	1776544989.177248	0.0	1.0	-1.0	-1.0	-1.0	-1.0	-1.0	-1.0	-1.0	-1.0	0.0	marker	peace	Peace	27	0418
-68693.4	-55257.119999999995	-104836.05	-18598.32	0.0	0.0	0.0	0.0	0.0	0.0	0.0	0.0	0.0	0.0	0.0	0.0	0.0	0.0	146.0	0.0	0.030212325	-0.05725083	1.01757552	4.059159999999999	0.2289	-2.1364	3299339.0	1776544989.17916	0.0	1.0	-1.0	-1.0	-1.0	-1.0	-1.0	-1.0	-1.0	-1.0	0.0	marker	peace	Peace	27	0418
-68624.505	-55249.064999999995	-104807.61	-18566.325	0.0	0.0	0.0	0.0	0.0	0.0	0.0	0.0	0.0	0.0	0.0	0.0	0.0	0.0	146.0	0.0	0.030212325	-0.05725083	1.01757552	4.059159999999999	0.2289	-2.1364	3299340.0	1776544989.179182	0.0	1.0	-1.0	-1.0	-1.0	-1.0	-1.0	-1.0	-1.0	-1.0	0.0	marker	peace	Peace	27	0418
-68757.075	-55250.64	-104916.87	-18668.745	0.0	0.0	0.0	0.0	0.0	0.0	0.0	0.0	0.0	0.0	0.0	0.0	0.0	0.0	146.0	0.0	0.030212325	-0.05725083	1.01757552	4.059159999999999	0.2289	-2.1364	3299341.0	1776544989.183162	0.0	1.0	-1.0	-1.0	-1.0	-1.0	-1.0	-1.0	-1.0	-1.0	0.0	marker	peace	Peace	27	0418
-68749.69499999999	-55234.395	-104879.47499999999	-18638.37	0.0	0.0	0.0	0.0	0.0	0.0	0.0	0.0	0.0	0.0	0.0	0.0	0.0	0.0	146.0	0.0	0.030212325	-0.05725083	1.01757552	4.059159999999999	0.2289	-2.1364	3299342.0	1776544989.183186	0.0	1.0	-1.0	-1.0	-1.0	-1.0	-1.0	-1.0	-1.0	-1.0	0.0	marker	peace	Peace	27	0418
-68732.505	-55224.18	-104863.31999999999	-18615.285	0.0	0.0	0.0	0.0	0.0	0.0	0.0	0.0	0.0	0.0	0.0	0.0	0.0	0.0	146.0	0.0	0.02990715	-0.052917345	1.01586654	4.41014	0.79352	-1.8617199999999998	3299343.0	1776544989.187298	0.0	1.0	-1.0	-1.0	-1.0	-1.0	-1.0	-1.0	-1.0	-1.0	0.0	marker	peace	Peace	27	0418
-68741.775	-55216.395	-104875.69499999999	-18601.02	0.0	0.0	0.0	0.0	0.0	0.0	0.0	0.0	0.0	0.0	0.0	0.0	0.0	0.0	146.0	0.0	0.02990715	-0.052917345	1.01586654	4.41014	0.79352	-1.8617199999999998	3299344.0	1776544989.187315	0.0	1.0	-1.0	-1.0	-1.0	-1.0	-1.0	-1.0	-1.0	-1.0	0.0	marker	peace	Peace	27	0418
-68713.11	-55219.049999999996	-104879.06999999999	-18588.105	0.0	0.0	0.0	0.0	0.0	0.0	0.0	0.0	0.0	0.0	0.0	0.0	0.0	0.0	146.0	0.0	0.02990715	-0.052917345	1.01586654	4.41014	0.79352	-1.8617199999999998	3299345.0	1776544989.191199	0.0	1.0	-1.0	-1.0	-1.0	-1.0	-1.0	-1.0	-1.0	-1.0	0.0	marker	peace	Peace	27	0418
-68699.655	-55242.314999999995	-104875.37999999999	-18587.07	0.0	0.0	0.0	0.0	0.0	0.0	0.0	0.0	0.0	0.0	0.0	0.0	0.0	0.0	146.0	0.0	0.02990715	-0.052917345	1.01586654	4.41014	0.79352	-1.8617199999999998	3299346.0	1776544989.191233	0.0	1.0	-1.0	-1.0	-1.0	-1.0	-1.0	-1.0	-1.0	-1.0	0.0	marker	peace	Peace	27	0418
-68736.19499999999	-55254.509999999995	-104924.06999999999	-18636.795	0.0	0.0	0.0	0.0	0.0	0.0	0.0	0.0	0.0	0.0	0.0	0.0	0.0	0.0	146.0	0.0	0.02990715	-0.052917345	1.01586654	4.41014	0.79352	-1.8617199999999998	3299347.0	1776544989.196147	0.0	1.0	-1.0	-1.0	-1.0	-1.0	-1.0	-1.0	-1.0	-1.0	0.0	marker	peace	Peace	27	0418
-68715.54	-55256.445	-104891.76	-18615.645	0.0	0.0	0.0	0.0	0.0	0.0	0.0	0.0	0.0	0.0	0.0	0.0	0.0	0.0	146.0	0.0	0.02990715	-0.052917345	1.01586654	4.41014	0.79352	-1.8617199999999998	3299348.0	1776544989.196171	0.0	1.0	-1.0	-1.0	-1.0	-1.0	-1.0	-1.0	-1.0	-1.0	0.0	marker	peace	Peace	27	0418
-68690.655	-55256.22	-104845.31999999999	-18579.735	0.0	0.0	0.0	0.0	0.0	0.0	0.0	0.0	0.0	0.0	0.0	0.0	0.0	0.0	146.0	0.0	0.02990715	-0.052917345	1.01586654	4.41014	0.79352	-1.8617199999999998	3299349.0	1776544989.200235	0.0	1.0	-1.0	-1.0	-1.0	-1.0	-1.0	-1.0	-1.0	-1.0	0.0	marker	peace	Peace	27	0418
-68679.45	-55249.65	-104858.86499999999	-18580.32	0.0	0.0	0.0	0.0	0.0	0.0	0.0	0.0	0.0	0.0	0.0	0.0	0.0	0.0	146.0	0.0	0.02990715	-0.052917345	1.01586654	4.41014	0.79352	-1.8617199999999998	3299350.0	1776544989.200262	0.0	1.0	-1.0	-1.0	-1.0	-1.0	-1.0	-1.0	-1.0	-1.0	0.0	marker	peace	Peace	27	0418
-68709.915	-55239.704999999994	-104908.86	-18619.2	0.0	0.0	0.0	0.0	0.0	0.0	0.0	0.0	0.0	0.0	0.0	0.0	0.0	0.0	146.0	0.0	0.02990715	-0.052917345	1.01586654	4.41014	0.79352	-1.8617199999999998	3299351.0	1776544989.203295	0.0	1.0	-1.0	-1.0	-1.0	-1.0	-1.0	-1.0	-1.0	-1.0	0.0	marker	peace	Peace	27	0418
-68739.255	-55240.424999999996	-104932.62	-18642.329999999998	0.0	0.0	0.0	0.0	0.0	0.0	0.0	0.0	0.0	0.0	0.0	0.0	0.0	0.0	146.0	0.0	0.02990715	-0.052917345	1.01586654	4.41014	0.79352	-1.8617199999999998	3299352.0	1776544989.203316	0.0	1.0	-1.0	-1.0	-1.0	-1.0	-1.0	-1.0	-1.0	-1.0	0.0	marker	peace	Peace	27	0418
-68738.84999999999	-55247.4	-104909.76	-18621.18	0.0	0.0	0.0	0.0	0.0	0.0	0.0	0.0	0.0	0.0	0.0	0.0	0.0	0.0	146.0	0.0	0.03332511	-0.04504383	1.014584805	3.02148	1.03768	-0.44254	3299353.0	1776544989.207369	0.0	1.0	-1.0	-1.0	-1.0	-1.0	-1.0	-1.0	-1.0	-1.0	0.0	marker	peace	Peace	27	0418
-68702.94	-55260.72	-104861.83499999999	-18585.54	0.0	0.0	0.0	0.0	0.0	0.0	0.0	0.0	0.0	0.0	0.0	0.0	0.0	0.0	146.0	0.0	0.03332511	-0.04504383	1.014584805	3.02148	1.03768	-0.44254	3299354.0	1776544989.207386	0.0	1.0	-1.0	-1.0	-1.0	-1.0	-1.0	-1.0	-1.0	-1.0	0.0	marker	peace	Peace	27	0418
-68686.965	-55272.104999999996	-104850.18	-18579.059999999998	0.0	0.0	0.0	0.0	0.0	0.0	0.0	0.0	0.0	0.0	0.0	0.0	0.0	0.0	146.0	0.0	0.03332511	-0.04504383	1.014584805	3.02148	1.03768	-0.44254	3299355.0	1776544989.212403	0.0	1.0	-1.0	-1.0	-1.0	-1.0	-1.0	-1.0	-1.0	-1.0	0.0	marker	peace	Peace	27	0418
-68718.735	-55271.61	-104883.795	-18617.355	0.0	0.0	0.0	0.0	0.0	0.0	0.0	0.0	0.0	0.0	0.0	0.0	0.0	0.0	146.0	0.0	0.03332511	-0.04504383	1.014584805	3.02148	1.03768	-0.44254	3299356.0	1776544989.212451	0.0	1.0	-1.0	-1.0	-1.0	-1.0	-1.0	-1.0	-1.0	-1.0	0.0	marker	peace	Peace	27	0418
-68720.84999999999	-55266.975	-104891.12999999999	-18617.219999999998	0.0	0.0	0.0	0.0	0.0	0.0	0.0	0.0	0.0	0.0	0.0	0.0	0.0	0.0	146.0	0.0	0.03332511	-0.04504383	1.014584805	3.02148	1.03768	-0.44254	3299357.0	1776544989.215495	0.0	1.0	-1.0	-1.0	-1.0	-1.0	-1.0	-1.0	-1.0	-1.0	0.0	marker	peace	Peace	27	0418
-68663.79	-55259.865	-104825.97	-18544.815	0.0	0.0	0.0	0.0	0.0	0.0	0.0	0.0	0.0	0.0	0.0	0.0	0.0	0.0	146.0	0.0	0.03332511	-0.04504383	1.014584805	3.02148	1.03768	-0.44254	3299358.0	1776544989.215528	0.0	1.0	-1.0	-1.0	-1.0	-1.0	-1.0	-1.0	-1.0	-1.0	0.0	marker	peace	Peace	27	0418
-68732.145	-55258.335	-104872.86	-18593.684999999998	0.0	0.0	0.0	0.0	0.0	0.0	0.0	0.0	0.0	0.0	0.0	0.0	0.0	0.0	146.0	0.0	0.03332511	-0.04504383	1.014584805	3.02148	1.03768	-0.44254	3299359.0	1776544989.219429	0.0	1.0	-1.0	-1.0	-1.0	-1.0	-1.0	-1.0	-1.0	-1.0	0.0	marker	peace	Peace	27	0418
-68757.93	-55254.375	-104881.59	-18616.59	0.0	0.0	0.0	0.0	0.0	0.0	0.0	0.0	0.0	0.0	0.0	0.0	0.0	0.0	146.0	0.0	0.03332511	-0.04504383	1.014584805	3.02148	1.03768	-0.44254	3299360.0	1776544989.219466	0.0	1.0	-1.0	-1.0	-1.0	-1.0	-1.0	-1.0	-1.0	-1.0	0.0	marker	peace	Peace	27	0418
-68688.675	-55251.494999999995	-104838.39	-18580.41	0.0	0.0	0.0	0.0	0.0	0.0	0.0	0.0	0.0	0.0	0.0	0.0	0.0	0.0	146.0	0.0	0.03332511	-0.04504383	1.014584805	3.02148	1.03768	-0.44254	3299361.0	1776544989.223247	0.0	1.0	-1.0	-1.0	-1.0	-1.0	-1.0	-1.0	-1.0	-1.0	0.0	marker	peace	Peace	27	0418
-68702.31	-55246.725	-104876.595	-18604.079999999998	0.0	0.0	0.0	0.0	0.0	0.0	0.0	0.0	0.0	0.0	0.0	0.0	0.0	0.0	146.0	0.0	0.03332511	-0.04504383	1.014584805	3.02148	1.03768	-0.44254	3299362.0	1776544989.223262	0.0	1.0	-1.0	-1.0	-1.0	-1.0	-1.0	-1.0	-1.0	-1.0	0.0	marker	peace	Peace	27	0418
-68703.03	-55272.24	-104869.44	-18594.09	0.0	0.0	0.0	0.0	0.0	0.0	0.0	0.0	0.0	0.0	0.0	0.0	0.0	0.0	146.0	0.0	0.02856438	-0.044738655	1.01952864	2.35004	0.39676	-0.27468	3299363.0	1776544989.227372	0.0	1.0	-1.0	-1.0	-1.0	-1.0	-1.0	-1.0	-1.0	-1.0	0.0	marker	peace	Peace	27	0418
-68677.92	-55321.65	-104847.56999999999	-18575.28	0.0	0.0	0.0	0.0	0.0	0.0	0.0	0.0	0.0	0.0	0.0	0.0	0.0	0.0	146.0	0.0	0.02856438	-0.044738655	1.01952864	2.35004	0.39676	-0.27468	3299364.0	1776544989.227385	0.0	1.0	-1.0	-1.0	-1.0	-1.0	-1.0	-1.0	-1.0	-1.0	0.0	marker	peace	Peace	27	0418
-68669.055	-55331.505	-104872.31999999999	-18614.43	0.0	0.0	0.0	0.0	0.0	0.0	0.0	0.0	0.0	0.0	0.0	0.0	0.0	0.0	146.0	0.0	0.02856438	-0.044738655	1.01952864	2.35004	0.39676	-0.27468	3299365.0	1776544989.231291	0.0	1.0	-1.0	-1.0	-1.0	-1.0	-1.0	-1.0	-1.0	-1.0	0.0	marker	peace	Peace	27	0418
-68661.9	-55327.365	-104867.055	-18613.44	0.0	0.0	0.0	0.0	0.0	0.0	0.0	0.0	0.0	0.0	0.0	0.0	0.0	0.0	146.0	0.0	0.02856438	-0.044738655	1.01952864	2.35004	0.39676	-0.27468	3299366.0	1776544989.231324	0.0	1.0	-1.0	-1.0	-1.0	-1.0	-1.0	-1.0	-1.0	-1.0	0.0	marker	peace	Peace	27	0418
-68693.84999999999	-55328.265	-104858.64	-18586.53	0.0	0.0	0.0	0.0	0.0	0.0	0.0	0.0	0.0	0.0	0.0	0.0	0.0	0.0	146.0	0.0	0.02856438	-0.044738655	1.01952864	2.35004	0.39676	-0.27468	3299367.0	1776544989.235466	0.0	1.0	-1.0	-1.0	-1.0	-1.0	-1.0	-1.0	-1.0	-1.0	0.0	marker	peace	Peace	27	0418
-68713.38	-55329.84	-104854.455	-18604.44	0.0	0.0	0.0	0.0	0.0	0.0	0.0	0.0	0.0	0.0	0.0	0.0	0.0	0.0	146.0	0.0	0.02856438	-0.044738655	1.01952864	2.35004	0.39676	-0.27468	3299368.0	1776544989.235489	0.0	1.0	-1.0	-1.0	-1.0	-1.0	-1.0	-1.0	-1.0	-1.0	0.0	marker	peace	Peace	27	0418
-68695.605	-55326.15	-104794.965	-18590.805	0.0	0.0	0.0	0.0	0.0	0.0	0.0	0.0	0.0	0.0	0.0	0.0	0.0	0.0	146.0	0.0	0.02856438	-0.044738655	1.01952864	2.35004	0.39676	-0.27468	3299369.0	1776544989.243901	0.0	1.0	-1.0	-1.0	-1.0	-1.0	-1.0	-1.0	-1.0	-1.0	0.0	marker	peace	Peace	27	0418
-68707.62	-55315.439999999995	-104776.965	-18580.815	0.0	0.0	0.0	0.0	0.0	0.0	0.0	0.0	0.0	0.0	0.0	0.0	0.0	0.0	146.0	0.0	0.02856438	-0.044738655	1.01952864	2.35004	0.39676	-0.27468	3299370.0	1776544989.243911	0.0	1.0	-1.0	-1.0	-1.0	-1.0	-1.0	-1.0	-1.0	-1.0	0.0	marker	peace	Peace	27	0418
-68720.895	-55320.435	-104819.76	-18595.305	0.0	0.0	0.0	0.0	0.0	0.0	0.0	0.0	0.0	0.0	0.0	0.0	0.0	0.0	146.0	0.0	0.02856438	-0.044738655	1.01952864	2.35004	0.39676	-0.27468	3299371.0	1776544989.244455	0.0	1.0	-1.0	-1.0	-1.0	-1.0	-1.0	-1.0	-1.0	-1.0	0.0	marker	peace	Peace	27	0418
-68685.3	-55325.475	-104837.89499999999	-18570.555	0.0	0.0	0.0	0.0	0.0	0.0	0.0	0.0	0.0	0.0	0.0	0.0	0.0	0.0	146.0	0.0	0.02856438	-0.044738655	1.01952864	2.35004	0.39676	-0.27468	3299372.0	1776544989.244465	0.0	1.0	-1.0	-1.0	-1.0	-1.0	-1.0	-1.0	-1.0	-1.0	0.0	marker	peace	Peace	27	0418
-68667.525	-55325.88	-104902.065	-18561.645	0.0	0.0	0.0	0.0	0.0	0.0	0.0	0.0	0.0	0.0	0.0	0.0	0.0	0.0	146.0	0.0	0.02990715	-0.04748523	1.02306867	2.01432	-0.10682	-0.18312	3299373.0	1776544989.247388	0.0	1.0	-1.0	-1.0	-1.0	-1.0	-1.0	-1.0	-1.0	-1.0	0.0	marker	peace	Peace	27	0418
-68702.805	-55327.32	-104917.455	-18603.18	0.0	0.0	0.0	0.0	0.0	0.0	0.0	0.0	0.0	0.0	0.0	0.0	0.0	0.0	146.0	0.0	0.02990715	-0.04748523	1.02306867	2.01432	-0.10682	-0.18312	3299374.0	1776544989.24742	0.0	1.0	-1.0	-1.0	-1.0	-1.0	-1.0	-1.0	-1.0	-1.0	0.0	marker	peace	Peace	27	0418
-68713.155	-55327.275	-104885.09999999999	-18633.915	0.0	0.0	0.0	0.0	0.0	0.0	0.0	0.0	0.0	0.0	0.0	0.0	0.0	0.0	146.0	0.0	0.02990715	-0.04748523	1.02306867	2.01432	-0.10682	-0.18312	3299375.0	1776544989.251523	0.0	1.0	-1.0	-1.0	-1.0	-1.0	-1.0	-1.0	-1.0	-1.0	0.0	marker	peace	Peace	27	0418
-68725.62	-55330.29	-104893.56	-18639.585	0.0	0.0	0.0	0.0	0.0	0.0	0.0	0.0	0.0	0.0	0.0	0.0	0.0	0.0	146.0	0.0	0.02990715	-0.04748523	1.02306867	2.01432	-0.10682	-0.18312	3299376.0	1776544989.251542	0.0	1.0	-1.0	-1.0	-1.0	-1.0	-1.0	-1.0	-1.0	-1.0	0.0	marker	peace	Peace	27	0418
-68731.245	-55337.67	-104945.265	-18653.985	0.0	0.0	0.0	0.0	0.0	0.0	0.0	0.0	0.0	0.0	0.0	0.0	0.0	0.0	146.0	0.0	0.02990715	-0.04748523	1.02306867	2.01432	-0.10682	-0.18312	3299377.0	1776544989.255463	0.0	1.0	-1.0	-1.0	-1.0	-1.0	-1.0	-1.0	-1.0	-1.0	0.0	marker	peace	Peace	27	0418
-68707.17	-55340.009999999995	-104921.235	-18594.54	0.0	0.0	0.0	0.0	0.0	0.0	0.0	0.0	0.0	0.0	0.0	0.0	0.0	0.0	146.0	0.0	0.02990715	-0.04748523	1.02306867	2.01432	-0.10682	-0.18312	3299378.0	1776544989.255493	0.0	1.0	-1.0	-1.0	-1.0	-1.0	-1.0	-1.0	-1.0	-1.0	0.0	marker	peace	Peace	27	0418
-68622.48	-55338.615	-104779.89	-18488.88	0.0	0.0	0.0	0.0	0.0	0.0	0.0	0.0	0.0	0.0	0.0	0.0	0.0	0.0	146.0	0.0	0.02990715	-0.04748523	1.02306867	2.01432	-0.10682	-0.18312	3299379.0	1776544989.260529	0.0	1.0	-1.0	-1.0	-1.0	-1.0	-1.0	-1.0	-1.0	-1.0	0.0	marker	peace	Peace	27	0418
-68575.995	-55344.509999999995	-104723.28	-18474.03	0.0	0.0	0.0	0.0	0.0	0.0	0.0	0.0	0.0	0.0	0.0	0.0	0.0	0.0	146.0	0.0	0.02990715	-0.04748523	1.02306867	2.01432	-0.10682	-0.18312	3299380.0	1776544989.260542	0.0	1.0	-1.0	-1.0	-1.0	-1.0	-1.0	-1.0	-1.0	-1.0	0.0	marker	peace	Peace	27	0418
-68701.815	-55360.439999999995	-104862.465	-18617.219999999998	0.0	0.0	0.0	0.0	0.0	0.0	0.0	0.0	0.0	0.0	0.0	0.0	0.0	0.0	146.0	0.0	0.02990715	-0.04748523	1.02306867	2.01432	-0.10682	-0.18312	3299381.0	1776544989.263394	0.0	1.0	-1.0	-1.0	-1.0	-1.0	-1.0	-1.0	-1.0	-1.0	0.0	marker	peace	Peace	27	0418
-68674.545	-55354.095	-104831.055	-18580.68	0.0	0.0	0.0	0.0	0.0	0.0	0.0	0.0	0.0	0.0	0.0	0.0	0.0	0.0	146.0	0.0	0.02990715	-0.04748523	1.02306867	2.01432	-0.10682	-0.18312	3299382.0	1776544989.263415	0.0	1.0	-1.0	-1.0	-1.0	-1.0	-1.0	-1.0	-1.0	-1.0	0.0	marker	peace	Peace	27	0418
-68759.28	-55347.704999999994	-104891.4	-18636.704999999998	0.0	0.0	0.0	0.0	0.0	0.0	0.0	0.0	0.0	0.0	0.0	0.0	0.0	0.0	146.0	0.0	0.032348550000000004	-0.050231805	1.02197004	3.4945399999999998	-0.25942	-0.8392999999999999	3299383.0	1776544989.26756	0.0	1.0	-1.0	-1.0	-1.0	-1.0	-1.0	-1.0	-1.0	-1.0	0.0	marker	peace	Peace	27	0418
-68787.54	-55343.25	-104867.14499999999	-18655.965	0.0	0.0	0.0	0.0	0.0	0.0	0.0	0.0	0.0	0.0	0.0	0.0	0.0	0.0	146.0	0.0	0.032348550000000004	-0.050231805	1.02197004	3.4945399999999998	-0.25942	-0.8392999999999999	3299384.0	1776544989.267575	0.0	1.0	-1.0	-1.0	-1.0	-1.0	-1.0	-1.0	-1.0	-1.0	0.0	marker	peace	Peace	27	0418
-68734.08	-55342.305	-104853.78	-18627.21	0.0	0.0	0.0	0.0	0.0	0.0	0.0	0.0	0.0	0.0	0.0	0.0	0.0	0.0	146.0	0.0	0.032348550000000004	-0.050231805	1.02197004	3.4945399999999998	-0.25942	-0.8392999999999999	3299385.0	1776544989.271472	0.0	1.0	-1.0	-1.0	-1.0	-1.0	-1.0	-1.0	-1.0	-1.0	0.0	marker	peace	Peace	27	0418
-68735.565	-55343.07	-104933.565	-18625.77	0.0	0.0	0.0	0.0	0.0	0.0	0.0	0.0	0.0	0.0	0.0	0.0	0.0	0.0	146.0	0.0	0.032348550000000004	-0.050231805	1.02197004	3.4945399999999998	-0.25942	-0.8392999999999999	3299386.0	1776544989.271496	0.0	1.0	-1.0	-1.0	-1.0	-1.0	-1.0	-1.0	-1.0	-1.0	0.0	marker	peace	Peace	27	0418
-68713.56	-55342.619999999995	-104939.37	-18619.649999999998	0.0	0.0	0.0	0.0	0.0	0.0	0.0	0.0	0.0	0.0	0.0	0.0	0.0	0.0	146.0	0.0	0.032348550000000004	-0.050231805	1.02197004	3.4945399999999998	-0.25942	-0.8392999999999999	3299387.0	1776544989.275484	0.0	1.0	-1.0	-1.0	-1.0	-1.0	-1.0	-1.0	-1.0	-1.0	0.0	marker	peace	Peace	27	0418
-68629.23	-55331.954999999994	-104844.87	-18568.215	0.0	0.0	0.0	0.0	0.0	0.0	0.0	0.0	0.0	0.0	0.0	0.0	0.0	0.0	146.0	0.0	0.032348550000000004	-0.050231805	1.02197004	3.4945399999999998	-0.25942	-0.8392999999999999	3299388.0	1776544989.275501	0.0	1.0	-1.0	-1.0	-1.0	-1.0	-1.0	-1.0	-1.0	-1.0	0.0	marker	peace	Peace	27	0418
-68555.97	-55319.22	-104758.965	-18487.17	0.0	0.0	0.0	0.0	0.0	0.0	0.0	0.0	0.0	0.0	0.0	0.0	0.0	0.0	146.0	0.0	0.032348550000000004	-0.050231805	1.02197004	3.4945399999999998	-0.25942	-0.8392999999999999	3299389.0	1776544989.279493	0.0	1.0	-1.0	-1.0	-1.0	-1.0	-1.0	-1.0	-1.0	-1.0	0.0	marker	peace	Peace	27	0418
-68725.935	-55316.07	-104878.44	-18591.524999999998	0.0	0.0	0.0	0.0	0.0	0.0	0.0	0.0	0.0	0.0	0.0	0.0	0.0	0.0	146.0	0.0	0.032348550000000004	-0.050231805	1.02197004	3.4945399999999998	-0.25942	-0.8392999999999999	3299390.0	1776544989.279525	0.0	1.0	-1.0	-1.0	-1.0	-1.0	-1.0	-1.0	-1.0	-1.0	0.0	marker	peace	Peace	27	0418
-68811.705	-55303.829999999994	-104926.545	-18667.35	0.0	0.0	0.0	0.0	0.0	0.0	0.0	0.0	0.0	0.0	0.0	0.0	0.0	0.0	146.0	0.0	0.032348550000000004	-0.050231805	1.02197004	3.4945399999999998	-0.25942	-0.8392999999999999	3299391.0	1776544989.283648	0.0	1.0	-1.0	-1.0	-1.0	-1.0	-1.0	-1.0	-1.0	-1.0	0.0	marker	peace	Peace	27	0418
-68758.155	-55300.68	-104931.98999999999	-18663.75	0.0	0.0	0.0	0.0	0.0	0.0	0.0	0.0	0.0	0.0	0.0	0.0	0.0	0.0	146.0	0.0	0.032348550000000004	-0.050231805	1.02197004	3.4945399999999998	-0.25942	-0.8392999999999999	3299392.0	1776544989.283671	0.0	1.0	-1.0	-1.0	-1.0	-1.0	-1.0	-1.0	-1.0	-1.0	0.0	marker	peace	Peace	27	0418
-68714.28	-55302.345	-104908.14	-18639.09	0.0	0.0	0.0	0.0	0.0	0.0	0.0	0.0	0.0	0.0	0.0	0.0	0.0	0.0	146.0	0.0	0.032409585	-0.055847025	1.01891829	3.25038	-0.32045999999999997	-1.0224199999999999	3299393.0	1776544989.287719	0.0	1.0	-1.0	-1.0	-1.0	-1.0	-1.0	-1.0	-1.0	-1.0	0.0	marker	peace	Peace	27	0418
-68685.84	-55304.325	-104864.04	-18598.905	0.0	0.0	0.0	0.0	0.0	0.0	0.0	0.0	0.0	0.0	0.0	0.0	0.0	0.0	146.0	0.0	0.032409585	-0.055847025	1.01891829	3.25038	-0.32045999999999997	-1.0224199999999999	3299394.0	1776544989.287748	0.0	1.0	-1.0	-1.0	-1.0	-1.0	-1.0	-1.0	-1.0	-1.0	0.0	marker	peace	Peace	27	0418
-68711.94	-55311.255	-104847.48	-18577.215	0.0	0.0	0.0	0.0	0.0	0.0	0.0	0.0	0.0	0.0	0.0	0.0	0.0	0.0	146.0	0.0	0.032409585	-0.055847025	1.01891829	3.25038	-0.32045999999999997	-1.0224199999999999	3299395.0	1776544989.29155	0.0	1.0	-1.0	-1.0	-1.0	-1.0	-1.0	-1.0	-1.0	-1.0	0.0	marker	peace	Peace	27	0418
-68761.34999999999	-55316.43	-104887.485	-18620.954999999998	0.0	0.0	0.0	0.0	0.0	0.0	0.0	0.0	0.0	0.0	0.0	0.0	0.0	0.0	146.0	0.0	0.032409585	-0.055847025	1.01891829	3.25038	-0.32045999999999997	-1.0224199999999999	3299396.0	1776544989.291569	0.0	1.0	-1.0	-1.0	-1.0	-1.0	-1.0	-1.0	-1.0	-1.0	0.0	marker	peace	Peace	27	0418
-68715.81	-55317.915	-104853.915	-18593.145	0.0	0.0	0.0	0.0	0.0	0.0	0.0	0.0	0.0	0.0	0.0	0.0	0.0	0.0	146.0	0.0	0.032409585	-0.055847025	1.01891829	3.25038	-0.32045999999999997	-1.0224199999999999	3299397.0	1776544989.295508	0.0	1.0	-1.0	-1.0	-1.0	-1.0	-1.0	-1.0	-1.0	-1.0	0.0	marker	peace	Peace	27	0418
-68660.01	-55311.165	-104795.055	-18519.704999999998	0.0	0.0	0.0	0.0	0.0	0.0	0.0	0.0	0.0	0.0	0.0	0.0	0.0	0.0	146.0	0.0	0.032409585	-0.055847025	1.01891829	3.25038	-0.32045999999999997	-1.0224199999999999	3299398.0	1776544989.29552	0.0	1.0	-1.0	-1.0	-1.0	-1.0	-1.0	-1.0	-1.0	-1.0	0.0	marker	peace	Peace	27	0418
-68627.88	-55301.805	-104787.315	-18509.13	0.0	0.0	0.0	0.0	0.0	0.0	0.0	0.0	0.0	0.0	0.0	0.0	0.0	0.0	146.0	0.0	0.032409585	-0.055847025	1.01891829	3.25038	-0.32045999999999997	-1.0224199999999999	3299399.0	1776544989.299586	0.0	1.0	-1.0	-1.0	-1.0	-1.0	-1.0	-1.0	-1.0	-1.0	0.0	marker	peace	Peace	27	0418
-68713.47	-55302.03	-104881.00499999999	-18611.73	0.0	0.0	0.0	0.0	0.0	0.0	0.0	0.0	0.0	0.0	0.0	0.0	0.0	0.0	146.0	0.0	0.032409585	-0.055847025	1.01891829	3.25038	-0.32045999999999997	-1.0224199999999999	3299400.0	1776544989.299603	0.0	1.0	-1.0	-1.0	-1.0	-1.0	-1.0	-1.0	-1.0	-1.0	0.0	marker	peace	Peace	27	0418
-68681.385	-55304.369999999995	-104874.25499999999	-18572.04	0.0	0.0	0.0	0.0	0.0	0.0	0.0	0.0	0.0	0.0	0.0	0.0	0.0	0.0	146.0	0.0	0.032409585	-0.055847025	1.01891829	3.25038	-0.32045999999999997	-1.0224199999999999	3299401.0	1776544989.306393	0.0	1.0	-1.0	-1.0	-1.0	-1.0	-1.0	-1.0	-1.0	-1.0	0.0	marker	peace	Peace	27	0418
-68725.34999999999	-55308.375	-104913.72	-18620.145	0.0	0.0	0.0	0.0	0.0	0.0	0.0	0.0	0.0	0.0	0.0	0.0	0.0	0.0	146.0	0.0	0.032409585	-0.055847025	1.01891829	3.25038	-0.32045999999999997	-1.0224199999999999	3299402.0	1776544989.306408	0.0	1.0	-1.0	-1.0	-1.0	-1.0	-1.0	-1.0	-1.0	-1.0	0.0	marker	peace	Peace	27	0418
-68746.095	-55319.67	-104915.655	-18645.93	0.0	0.0	0.0	0.0	0.0	0.0	0.0	0.0	0.0	0.0	0.0	0.0	0.0	0.0	146.0	0.0	0.03137199	-0.06066879	1.016659995	5.1273599999999995	-0.09156	-2.48738	3299403.0	1776544989.30771	0.0	1.0	-1.0	-1.0	-1.0	-1.0	-1.0	-1.0	-1.0	-1.0	0.0	marker	peace	Peace	27	0418
-68720.265	-55329.615	-104865.65999999999	-18611.82	0.0	0.0	0.0	0.0	0.0	0.0	0.0	0.0	0.0	0.0	0.0	0.0	0.0	0.0	146.0	0.0	0.03137199	-0.06066879	1.016659995	5.1273599999999995	-0.09156	-2.48738	3299404.0	1776544989.307721	0.0	1.0	-1.0	-1.0	-1.0	-1.0	-1.0	-1.0	-1.0	-1.0	0.0	marker	peace	Peace	27	0418
-68707.395	-55337.31	-104855.67	-18598.905	0.0	0.0	0.0	0.0	0.0	0.0	0.0	0.0	0.0	0.0	0.0	0.0	0.0	0.0	146.0	0.0	0.03137199	-0.06066879	1.016659995	5.1273599999999995	-0.09156	-2.48738	3299405.0	1776544989.311654	0.0	1.0	-1.0	-1.0	-1.0	-1.0	-1.0	-1.0	-1.0	-1.0	0.0	marker	peace	Peace	27	0418
-68708.79	-55335.06	-104865.39	-18592.245	0.0	0.0	0.0	0.0	0.0	0.0	0.0	0.0	0.0	0.0	0.0	0.0	0.0	0.0	146.0	0.0	0.03137199	-0.06066879	1.016659995	5.1273599999999995	-0.09156	-2.48738	3299406.0	1776544989.311667	0.0	1.0	-1.0	-1.0	-1.0	-1.0	-1.0	-1.0	-1.0	-1.0	0.0	marker	peace	Peace	27	0418
-68675.48999999999	-55323.765	-104869.215	-18595.98	0.0	0.0	0.0	0.0	0.0	0.0	0.0	0.0	0.0	0.0	0.0	0.0	0.0	0.0	146.0	0.0	0.03137199	-0.06066879	1.016659995	5.1273599999999995	-0.09156	-2.48738	3299407.0	1776544989.317528	0.0	1.0	-1.0	-1.0	-1.0	-1.0	-1.0	-1.0	-1.0	-1.0	0.0	marker	peace	Peace	27	0418
-68667.84	-55308.689999999995	-104855.44499999999	-18586.035	0.0	0.0	0.0	0.0	0.0	0.0	0.0	0.0	0.0	0.0	0.0	0.0	0.0	0.0	146.0	0.0	0.03137199	-0.06066879	1.016659995	5.1273599999999995	-0.09156	-2.48738	3299408.0	1776544989.31754	0.0	1.0	-1.0	-1.0	-1.0	-1.0	-1.0	-1.0	-1.0	-1.0	0.0	marker	peace	Peace	27	0418
