ch_0	ch_1	ch_2	ch_3	ch_4	ch_5	ch_6	ch_7	ch_8	ch_9	ch_10	ch_11	ch_12	ch_13	ch_14	ch_15	ch_16	ch_17	ch_18	ch_19	ch_20	ch_21	ch_22	ch_23	ch_24	ch_25	ch_26	timestamp	marker	ch_29	ch_30	ch_31	ch_32	ch_33	ch_34	ch_35	ch_36	ch_37	ch_38	MarkerColumn	GestureLabel	CueLabel	SampleNumber	CollectionDate
-68058.72	-54822.735	-104298.075	-18331.425	0.0	0.0	0.0	0.0	0.0	0.0	0.0	0.0	0.0	0.0	0.0	0.0	0.0	0.0	146.0	0.0	0.048828	-0.085449	1.02184797	1.6022999999999998	-1.2818399999999999	-1.8006799999999998	3273136.0	1776544936.593842	5.0	1.0	-1.0	-1.0	-1.0	-1.0	-1.0	-1.0	-1.0	-1.0	0.0	marker	peace	Peace	22	0418
-68066.055	-54817.829999999994	-104325.93	-18404.415	0.0	0.0	0.0	0.0	0.0	0.0	0.0	0.0	0.0	0.0	0.0	0.0	0.0	0.0	146.0	0.0	0.048828	-0.085449	1.02184797	1.6022999999999998	-1.2818399999999999	-1.8006799999999998	3273137.0	1776544936.593858	0.0	1.0	-1.0	-1.0	-1.0	-1.0	-1.0	-1.0	-1.0	-1.0	0.0	marker	peace	Peace	22	0418
-68049.405	-54809.82	-104308.29	-18390.825	0.0	0.0	0.0	0.0	0.0	0.0	0.0	0.0	0.0	0.0	0.0	0.0	0.0	0.0	146.0	0.0	0.048828	-0.085449	1.02184797	1.6022999999999998	-1.2818399999999999	-1.8006799999999998	3273138.0	1776544936.59795	0.0	1.0	-1.0	-1.0	-1.0	-1.0	-1.0	-1.0	-1.0	-1.0	0.0	marker	peace	Peace	22	0418
-68031.22499999999	-54807.525	-104275.98	-18335.16	0.0	0.0	0.0	0.0	0.0	0.0	0.0	0.0	0.0	0.0	0.0	0.0	0.0	0.0	146.0	0.0	0.048828	-0.085449	1.02184797	1.6022999999999998	-1.2818399999999999	-1.8006799999999998	3273139.0	1776544936.597956	0.0	1.0	-1.0	-1.0	-1.0	-1.0	-1.0	-1.0	-1.0	-1.0	0.0	marker	peace	Peace	22	0418
-67956.435	-54810.765	-104249.43	-18320.309999999998	0.0	0.0	0.0	0.0	0.0	0.0	0.0	0.0	0.0	0.0	0.0	0.0	0.0	0.0	146.0	0.0	0.055847025	-0.080871375	1.0152561900000001	2.4110799999999997	-0.97664	-0.73248	3273140.0	1776544936.601743	0.0	1.0	-1.0	-1.0	-1.0	-1.0	-1.0	-1.0	-1.0	-1.0	0.0	marker	peace	Peace	22	0418
-67924.08	-54814.14	-104272.83	-18338.715	0.0	0.0	0.0	0.0	0.0	0.0	0.0	0.0	0.0	0.0	0.0	0.0	0.0	0.0	146.0	0.0	0.055847025	-0.080871375	1.0152561900000001	2.4110799999999997	-0.97664	-0.73248	3273141.0	1776544936.601748	0.0	1.0	-1.0	-1.0	-1.0	-1.0	-1.0	-1.0	-1.0	-1.0	0.0	marker	peace	Peace	22	0418
-68076.63	-54817.515	-104325.795	-18371.835	0.0	0.0	0.0	0.0	0.0	0.0	0.0	0.0	0.0	0.0	0.0	0.0	0.0	0.0	146.0	0.0	0.055847025	-0.080871375	1.0152561900000001	2.4110799999999997	-0.97664	-0.73248	3273142.0	1776544936.61057	0.0	1.0	-1.0	-1.0	-1.0	-1.0	-1.0	-1.0	-1.0	-1.0	0.0	marker	peace	Peace	22	0418
-68094.72	-54811.125	-104291.50499999999	-18360.809999999998	0.0	0.0	0.0	0.0	0.0	0.0	0.0	0.0	0.0	0.0	0.0	0.0	0.0	0.0	146.0	0.0	0.055847025	-0.080871375	1.0152561900000001	2.4110799999999997	-0.97664	-0.73248	3273143.0	1776544936.6106	0.0	1.0	-1.0	-1.0	-1.0	-1.0	-1.0	-1.0	-1.0	-1.0	0.0	marker	peace	Peace	22	0418
-68040.98999999999	-54808.92	-104299.245	-18375.165	0.0	0.0	0.0	0.0	0.0	0.0	0.0	0.0	0.0	0.0	0.0	0.0	0.0	0.0	146.0	0.0	0.055847025	-0.080871375	1.0152561900000001	2.4110799999999997	-0.97664	-0.73248	3273144.0	1776544936.610618	0.0	1.0	-1.0	-1.0	-1.0	-1.0	-1.0	-1.0	-1.0	-1.0	0.0	marker	peace	Peace	22	0418
-68024.11499999999	-54806.265	-104304.95999999999	-18358.11	0.0	0.0	0.0	0.0	0.0	0.0	0.0	0.0	0.0	0.0	0.0	0.0	0.0	0.0	146.0	0.0	0.055847025	-0.080871375	1.0152561900000001	2.4110799999999997	-0.97664	-0.73248	3273145.0	1776544936.610621	0.0	1.0	-1.0	-1.0	-1.0	-1.0	-1.0	-1.0	-1.0	-1.0	0.0	marker	peace	Peace	22	0418
-67921.92	-54810.09	-104226.25499999999	-18260.82	0.0	0.0	0.0	0.0	0.0	0.0	0.0	0.0	0.0	0.0	0.0	0.0	0.0	0.0	146.0	0.0	0.055847025	-0.080871375	1.0152561900000001	2.4110799999999997	-0.97664	-0.73248	3273146.0	1776544936.613914	0.0	1.0	-1.0	-1.0	-1.0	-1.0	-1.0	-1.0	-1.0	-1.0	0.0	marker	peace	Peace	22	0418
-67968.27	-54827.909999999996	-104286.915	-18335.52	0.0	0.0	0.0	0.0	0.0	0.0	0.0	0.0	0.0	0.0	0.0	0.0	0.0	0.0	146.0	0.0	0.055847025	-0.080871375	1.0152561900000001	2.4110799999999997	-0.97664	-0.73248	3273147.0	1776544936.613933	0.0	1.0	-1.0	-1.0	-1.0	-1.0	-1.0	-1.0	-1.0	-1.0	0.0	marker	peace	Peace	22	0418
-68075.28	-54845.145	-104347.98	-18428.309999999998	0.0	0.0	0.0	0.0	0.0	0.0	0.0	0.0	0.0	0.0	0.0	0.0	0.0	0.0	146.0	0.0	0.055847025	-0.080871375	1.0152561900000001	2.4110799999999997	-0.97664	-0.73248	3273148.0	1776544936.617886	0.0	1.0	-1.0	-1.0	-1.0	-1.0	-1.0	-1.0	-1.0	-1.0	0.0	marker	peace	Peace	22	0418
-68066.37	-54844.11	-104321.655	-18401.175	0.0	0.0	0.0	0.0	0.0	0.0	0.0	0.0	0.0	0.0	0.0	0.0	0.0	0.0	146.0	0.0	0.055847025	-0.080871375	1.0152561900000001	2.4110799999999997	-0.97664	-0.73248	3273149.0	1776544936.61789	0.0	1.0	-1.0	-1.0	-1.0	-1.0	-1.0	-1.0	-1.0	-1.0	0.0	marker	peace	Peace	22	0418
-68053.455	-54840.195	-104305.635	-18377.055	0.0	0.0	0.0	0.0	0.0	0.0	0.0	0.0	0.0	0.0	0.0	0.0	0.0	0.0	146.0	0.0	0.063537435	-0.084411405	1.00536852	3.4640199999999997	0.15259999999999999	-1.8769799999999999	3273150.0	1776544936.621855	0.0	1.0	-1.0	-1.0	-1.0	-1.0	-1.0	-1.0	-1.0	-1.0	0.0	marker	peace	Peace	22	0418
-67962.69	-54818.954999999994	-104242.00499999999	-18306.315	0.0	0.0	0.0	0.0	0.0	0.0	0.0	0.0	0.0	0.0	0.0	0.0	0.0	0.0	146.0	0.0	0.063537435	-0.084411405	1.00536852	3.4640199999999997	0.15259999999999999	-1.8769799999999999	3273151.0	1776544936.621858	0.0	1.0	-1.0	-1.0	-1.0	-1.0	-1.0	-1.0	-1.0	-1.0	0.0	marker	peace	Peace	22	0418
-68016.465	-54806.445	-104247.405	-18325.89	0.0	0.0	0.0	0.0	0.0	0.0	0.0	0.0	0.0	0.0	0.0	0.0	0.0	0.0	146.0	0.0	0.063537435	-0.084411405	1.00536852	3.4640199999999997	0.15259999999999999	-1.8769799999999999	3273152.0	1776544936.62589	0.0	1.0	-1.0	-1.0	-1.0	-1.0	-1.0	-1.0	-1.0	-1.0	0.0	marker	peace	Peace	22	0418
-68009.44499999999	-54794.7	-104189.265	-18297.315	0.0	0.0	0.0	0.0	0.0	0.0	0.0	0.0	0.0	0.0	0.0	0.0	0.0	0.0	146.0	0.0	0.063537435	-0.084411405	1.00536852	3.4640199999999997	0.15259999999999999	-1.8769799999999999	3273153.0	1776544936.625895	0.0	1.0	-1.0	-1.0	-1.0	-1.0	-1.0	-1.0	-1.0	-1.0	0.0	marker	peace	Peace	22	0418
-67914.9	-54789.84	-104136.3	-18264.195	0.0	0.0	0.0	0.0	0.0	0.0	0.0	0.0	0.0	0.0	0.0	0.0	0.0	0.0	146.0	0.0	0.063537435	-0.084411405	1.00536852	3.4640199999999997	0.15259999999999999	-1.8769799999999999	3273154.0	1776544936.629854	0.0	1.0	-1.0	-1.0	-1.0	-1.0	-1.0	-1.0	-1.0	-1.0	0.0	marker	peace	Peace	22	0418
-68042.97	-54806.445	-104314.00499999999	-18386.594999999998	0.0	0.0	0.0	0.0	0.0	0.0	0.0	0.0	0.0	0.0	0.0	0.0	0.0	0.0	146.0	0.0	0.063537435	-0.084411405	1.00536852	3.4640199999999997	0.15259999999999999	-1.8769799999999999	3273155.0	1776544936.629857	0.0	1.0	-1.0	-1.0	-1.0	-1.0	-1.0	-1.0	-1.0	-1.0	0.0	marker	peace	Peace	22	0418
-68101.875	-54812.34	-104377.23	-18399.96	0.0	0.0	0.0	0.0	0.0	0.0	0.0	0.0	0.0	0.0	0.0	0.0	0.0	0.0	146.0	0.0	0.063537435	-0.084411405	1.00536852	3.4640199999999997	0.15259999999999999	-1.8769799999999999	3273156.0	1776544936.63391	0.0	1.0	-1.0	-1.0	-1.0	-1.0	-1.0	-1.0	-1.0	-1.0	0.0	marker	peace	Peace	22	0418
-67978.53	-54812.204999999994	-104278.00499999999	-18324.18	0.0	0.0	0.0	0.0	0.0	0.0	0.0	0.0	0.0	0.0	0.0	0.0	0.0	0.0	146.0	0.0	0.063537435	-0.084411405	1.00536852	3.4640199999999997	0.15259999999999999	-1.8769799999999999	3273157.0	1776544936.633913	0.0	1.0	-1.0	-1.0	-1.0	-1.0	-1.0	-1.0	-1.0	-1.0	0.0	marker	peace	Peace	22	0418
-68015.43	-54816.795	-104284.125	-18348.57	0.0	0.0	0.0	0.0	0.0	0.0	0.0	0.0	0.0	0.0	0.0	0.0	0.0	0.0	146.0	0.0	0.063537435	-0.084411405	1.00536852	3.4640199999999997	0.15259999999999999	-1.8769799999999999	3273158.0	1776544936.637887	0.0	1.0	-1.0	-1.0	-1.0	-1.0	-1.0	-1.0	-1.0	-1.0	0.0	marker	peace	Peace	22	0418
-68104.53	-54809.145	-104333.08499999999	-18430.469999999998	0.0	0.0	0.0	0.0	0.0	0.0	0.0	0.0	0.0	0.0	0.0	0.0	0.0	0.0	146.0	0.0	0.063537435	-0.084411405	1.00536852	3.4640199999999997	0.15259999999999999	-1.8769799999999999	3273159.0	1776544936.63789	0.0	1.0	-1.0	-1.0	-1.0	-1.0	-1.0	-1.0	-1.0	-1.0	0.0	marker	peace	Peace	22	0418
-68051.97	-54790.244999999995	-104292.495	-18382.5	0.0	0.0	0.0	0.0	0.0	0.0	0.0	0.0	0.0	0.0	0.0	0.0	0.0	0.0	146.0	0.0	0.06433089	-0.080993445	1.00329333	2.65524	0.73248	-0.4578	3273160.0	1776544936.642013	0.0	1.0	-1.0	-1.0	-1.0	-1.0	-1.0	-1.0	-1.0	-1.0	0.0	marker	peace	Peace	22	0418
-67971.42	-54780.884999999995	-104287.185	-18342.989999999998	0.0	0.0	0.0	0.0	0.0	0.0	0.0	0.0	0.0	0.0	0.0	0.0	0.0	0.0	146.0	0.0	0.06433089	-0.080993445	1.00329333	2.65524	0.73248	-0.4578	3273161.0	1776544936.64202	0.0	1.0	-1.0	-1.0	-1.0	-1.0	-1.0	-1.0	-1.0	-1.0	0.0	marker	peace	Peace	22	0418
-67956.255	-54788.579999999994	-104287.14	-18356.67	0.0	0.0	0.0	0.0	0.0	0.0	0.0	0.0	0.0	0.0	0.0	0.0	0.0	0.0	146.0	0.0	0.06433089	-0.080993445	1.00329333	2.65524	0.73248	-0.4578	3273162.0	1776544936.646022	0.0	1.0	-1.0	-1.0	-1.0	-1.0	-1.0	-1.0	-1.0	-1.0	0.0	marker	peace	Peace	22	0418
-67921.515	-54791.595	-104242.40999999999	-18276.12	0.0	0.0	0.0	0.0	0.0	0.0	0.0	0.0	0.0	0.0	0.0	0.0	0.0	0.0	146.0	0.0	0.06433089	-0.080993445	1.00329333	2.65524	0.73248	-0.4578	3273163.0	1776544936.646025	0.0	1.0	-1.0	-1.0	-1.0	-1.0	-1.0	-1.0	-1.0	-1.0	0.0	marker	peace	Peace	22	0418
-68064.255	-54809.729999999996	-104331.825	-18356.85	0.0	0.0	0.0	0.0	0.0	0.0	0.0	0.0	0.0	0.0	0.0	0.0	0.0	0.0	146.0	0.0	0.06433089	-0.080993445	1.00329333	2.65524	0.73248	-0.4578	3273164.0	1776544936.649947	0.0	1.0	-1.0	-1.0	-1.0	-1.0	-1.0	-1.0	-1.0	-1.0	0.0	marker	peace	Peace	22	0418
-68016.645	-54810.09	-104283.26999999999	-18343.485	0.0	0.0	0.0	0.0	0.0	0.0	0.0	0.0	0.0	0.0	0.0	0.0	0.0	0.0	146.0	0.0	0.06433089	-0.080993445	1.00329333	2.65524	0.73248	-0.4578	3273165.0	1776544936.649951	0.0	1.0	-1.0	-1.0	-1.0	-1.0	-1.0	-1.0	-1.0	-1.0	0.0	marker	peace	Peace	22	0418
-68073.12	-54809.055	-104351.76	-18395.864999999998	0.0	0.0	0.0	0.0	0.0	0.0	0.0	0.0	0.0	0.0	0.0	0.0	0.0	0.0	146.0	0.0	0.06433089	-0.080993445	1.00329333	2.65524	0.73248	-0.4578	3273166.0	1776544936.653891	0.0	1.0	-1.0	-1.0	-1.0	-1.0	-1.0	-1.0	-1.0	-1.0	0.0	marker	peace	Peace	22	0418
-68066.37	-54806.85	-104244.3	-18340.515	0.0	0.0	0.0	0.0	0.0	0.0	0.0	0.0	0.0	0.0	0.0	0.0	0.0	0.0	146.0	0.0	0.06433089	-0.080993445	1.00329333	2.65524	0.73248	-0.4578	3273167.0	1776544936.653894	0.0	1.0	-1.0	-1.0	-1.0	-1.0	-1.0	-1.0	-1.0	-1.0	0.0	marker	peace	Peace	22	0418
-67950.94499999999	-54801.045	-104109.03	-18269.91	0.0	0.0	0.0	0.0	0.0	0.0	0.0	0.0	0.0	0.0	0.0	0.0	0.0	0.0	146.0	0.0	0.06433089	-0.080993445	1.00329333	2.65524	0.73248	-0.4578	3273168.0	1776544936.657891	0.0	1.0	-1.0	-1.0	-1.0	-1.0	-1.0	-1.0	-1.0	-1.0	0.0	marker	peace	Peace	22	0418
-67920.255	-54797.04	-104142.64499999999	-18293.219999999998	0.0	0.0	0.0	0.0	0.0	0.0	0.0	0.0	0.0	0.0	0.0	0.0	0.0	0.0	146.0	0.0	0.06433089	-0.080993445	1.00329333	2.65524	0.73248	-0.4578	3273169.0	1776544936.657894	0.0	1.0	-1.0	-1.0	-1.0	-1.0	-1.0	-1.0	-1.0	-1.0	0.0	marker	peace	Peace	22	0418
-68015.06999999999	-54801.494999999995	-104258.925	-18356.04	0.0	0.0	0.0	0.0	0.0	0.0	0.0	0.0	0.0	0.0	0.0	0.0	0.0	0.0	146.0	0.0	0.058044285	-0.077819625	1.00903062	1.9380199999999999	0.59514	-0.5341	3273170.0	1776544936.662094	0.0	1.0	-1.0	-1.0	-1.0	-1.0	-1.0	-1.0	-1.0	-1.0	0.0	marker	peace	Peace	22	0418
-68047.92	-54807.255	-104282.50499999999	-18341.19	0.0	0.0	0.0	0.0	0.0	0.0	0.0	0.0	0.0	0.0	0.0	0.0	0.0	0.0	146.0	0.0	0.058044285	-0.077819625	1.00903062	1.9380199999999999	0.59514	-0.5341	3273171.0	1776544936.662098	0.0	1.0	-1.0	-1.0	-1.0	-1.0	-1.0	-1.0	-1.0	-1.0	0.0	marker	peace	Peace	22	0418
-68131.935	-54816.57	-104386.095	-18397.125	0.0	0.0	0.0	0.0	0.0	0.0	0.0	0.0	0.0	0.0	0.0	0.0	0.0	0.0	146.0	0.0	0.058044285	-0.077819625	1.00903062	1.9380199999999999	0.59514	-0.5341	3273172.0	1776544936.666147	0.0	1.0	-1.0	-1.0	-1.0	-1.0	-1.0	-1.0	-1.0	-1.0	0.0	marker	peace	Peace	22	0418
-68114.06999999999	-54808.965	-104391.62999999999	-18404.46	0.0	0.0	0.0	0.0	0.0	0.0	0.0	0.0	0.0	0.0	0.0	0.0	0.0	0.0	146.0	0.0	0.058044285	-0.077819625	1.00903062	1.9380199999999999	0.59514	-0.5341	3273173.0	1776544936.666163	0.0	1.0	-1.0	-1.0	-1.0	-1.0	-1.0	-1.0	-1.0	-1.0	0.0	marker	peace	Peace	22	0418
-68065.92	-54802.034999999996	-104349.915	-18390.329999999998	0.0	0.0	0.0	0.0	0.0	0.0	0.0	0.0	0.0	0.0	0.0	0.0	0.0	0.0	146.0	0.0	0.058044285	-0.077819625	1.00903062	1.9380199999999999	0.59514	-0.5341	3273174.0	1776544936.673321	0.0	1.0	-1.0	-1.0	-1.0	-1.0	-1.0	-1.0	-1.0	-1.0	0.0	marker	peace	Peace	22	0418
-68044.05	-54795.915	-104349.42	-18384.48	0.0	0.0	0.0	0.0	0.0	0.0	0.0	0.0	0.0	0.0	0.0	0.0	0.0	0.0	146.0	0.0	0.058044285	-0.077819625	1.00903062	1.9380199999999999	0.59514	-0.5341	3273175.0	1776544936.673329	0.0	1.0	-1.0	-1.0	-1.0	-1.0	-1.0	-1.0	-1.0	-1.0	0.0	marker	peace	Peace	22	0418
-68028.61499999999	-54787.77	-104327.73	-18375.93	0.0	0.0	0.0	0.0	0.0	0.0	0.0	0.0	0.0	0.0	0.0	0.0	0.0	0.0	146.0	0.0	0.058044285	-0.077819625	1.00903062	1.9380199999999999	0.59514	-0.5341	3273176.0	1776544936.67444	0.0	1.0	-1.0	-1.0	-1.0	-1.0	-1.0	-1.0	-1.0	-1.0	0.0	marker	peace	Peace	22	0418
-68040.72	-54784.575	-104308.605	-18365.895	0.0	0.0	0.0	0.0	0.0	0.0	0.0	0.0	0.0	0.0	0.0	0.0	0.0	0.0	146.0	0.0	0.058044285	-0.077819625	1.00903062	1.9380199999999999	0.59514	-0.5341	3273177.0	1776544936.674446	0.0	1.0	-1.0	-1.0	-1.0	-1.0	-1.0	-1.0	-1.0	-1.0	0.0	marker	peace	Peace	22	0418
-67988.11499999999	-54788.49	-104249.43	-18311.715	0.0	0.0	0.0	0.0	0.0	0.0	0.0	0.0	0.0	0.0	0.0	0.0	0.0	0.0	146.0	0.0	0.058044285	-0.077819625	1.00903062	1.9380199999999999	0.59514	-0.5341	3273178.0	1776544936.686658	0.0	1.0	-1.0	-1.0	-1.0	-1.0	-1.0	-1.0	-1.0	-1.0	0.0	marker	peace	Peace	22	0418
-68025.735	-54800.1	-104315.625	-18383.04	0.0	0.0	0.0	0.0	0.0	0.0	0.0	0.0	0.0	0.0	0.0	0.0	0.0	0.0	146.0	0.0	0.058044285	-0.077819625	1.00903062	1.9380199999999999	0.59514	-0.5341	3273179.0	1776544936.686682	0.0	1.0	-1.0	-1.0	-1.0	-1.0	-1.0	-1.0	-1.0	-1.0	0.0	marker	peace	Peace	22	0418
-68059.845	-54808.335	-104354.325	-18419.715	0.0	0.0	0.0	0.0	0.0	0.0	0.0	0.0	0.0	0.0	0.0	0.0	0.0	0.0	146.0	0.0	0.060363615	-0.077453415	1.015805505	2.65524	0.21364	-0.2289	3273180.0	1776544936.689536	0.0	1.0	-1.0	-1.0	-1.0	-1.0	-1.0	-1.0	-1.0	-1.0	0.0	marker	peace	Peace	22	0418
-68051.34	-54812.97	-104321.565	-18387.18	0.0	0.0	0.0	0.0	0.0	0.0	0.0	0.0	0.0	0.0	0.0	0.0	0.0	0.0	146.0	0.0	0.060363615	-0.077453415	1.015805505	2.65524	0.21364	-0.2289	3273181.0	1776544936.689539	0.0	1.0	-1.0	-1.0	-1.0	-1.0	-1.0	-1.0	-1.0	-1.0	0.0	marker	peace	Peace	22	0418
-68015.205	-54825.435	-104274.9	-18330.524999999998	0.0	0.0	0.0	0.0	0.0	0.0	0.0	0.0	0.0	0.0	0.0	0.0	0.0	0.0	146.0	0.0	0.060363615	-0.077453415	1.015805505	2.65524	0.21364	-0.2289	3273182.0	1776544936.689544	0.0	1.0	-1.0	-1.0	-1.0	-1.0	-1.0	-1.0	-1.0	-1.0	0.0	marker	peace	Peace	22	0418
-67966.38	-54870.345	-104252.48999999999	-18301.815	0.0	0.0	0.0	0.0	0.0	0.0	0.0	0.0	0.0	0.0	0.0	0.0	0.0	0.0	146.0	0.0	0.060363615	-0.077453415	1.015805505	2.65524	0.21364	-0.2289	3273183.0	1776544936.689547	0.0	1.0	-1.0	-1.0	-1.0	-1.0	-1.0	-1.0	-1.0	-1.0	0.0	marker	peace	Peace	22	0418
-67983.93	-54888.884999999995	-104240.47499999999	-18303.48	0.0	0.0	0.0	0.0	0.0	0.0	0.0	0.0	0.0	0.0	0.0	0.0	0.0	0.0	146.0	0.0	0.060363615	-0.077453415	1.015805505	2.65524	0.21364	-0.2289	3273184.0	1776544936.692487	0.0	1.0	-1.0	-1.0	-1.0	-1.0	-1.0	-1.0	-1.0	-1.0	0.0	marker	peace	Peace	22	0418
-67998.105	-54890.055	-104261.985	-18343.844999999998	0.0	0.0	0.0	0.0	0.0	0.0	0.0	0.0	0.0	0.0	0.0	0.0	0.0	0.0	146.0	0.0	0.060363615	-0.077453415	1.015805505	2.65524	0.21364	-0.2289	3273185.0	1776544936.69249	0.0	1.0	-1.0	-1.0	-1.0	-1.0	-1.0	-1.0	-1.0	-1.0	0.0	marker	peace	Peace	22	0418
-68024.79	-54899.82	-104278.40999999999	-18343.62	0.0	0.0	0.0	0.0	0.0	0.0	0.0	0.0	0.0	0.0	0.0	0.0	0.0	0.0	146.0	0.0	0.060363615	-0.077453415	1.015805505	2.65524	0.21364	-0.2289	3273186.0	1776544936.694129	0.0	1.0	-1.0	-1.0	-1.0	-1.0	-1.0	-1.0	-1.0	-1.0	0.0	marker	peace	Peace	22	0418
-67903.73999999999	-54897.659999999996	-104138.415	-18227.52	0.0	0.0	0.0	0.0	0.0	0.0	0.0	0.0	0.0	0.0	0.0	0.0	0.0	0.0	146.0	0.0	0.060363615	-0.077453415	1.015805505	2.65524	0.21364	-0.2289	3273187.0	1776544936.694133	0.0	1.0	-1.0	-1.0	-1.0	-1.0	-1.0	-1.0	-1.0	-1.0	0.0	marker	peace	Peace	22	0418
-67977.09	-54908.954999999994	-104225.715	-18308.07	0.0	0.0	0.0	0.0	0.0	0.0	0.0	0.0	0.0	0.0	0.0	0.0	0.0	0.0	146.0	0.0	0.060363615	-0.077453415	1.015805505	2.65524	0.21364	-0.2289	3273188.0	1776544936.698141	0.0	1.0	-1.0	-1.0	-1.0	-1.0	-1.0	-1.0	-1.0	-1.0	0.0	marker	peace	Peace	22	0418
-68050.845	-54920.744999999995	-104319.09	-18380.475	0.0	0.0	0.0	0.0	0.0	0.0	0.0	0.0	0.0	0.0	0.0	0.0	0.0	0.0	146.0	0.0	0.060363615	-0.077453415	1.015805505	2.65524	0.21364	-0.2289	3273189.0	1776544936.698157	0.0	1.0	-1.0	-1.0	-1.0	-1.0	-1.0	-1.0	-1.0	-1.0	0.0	marker	peace	Peace	22	0418
-68033.97	-54915.659999999996	-104295.555	-18365.94	0.0	0.0	0.0	0.0	0.0	0.0	0.0	0.0	0.0	0.0	0.0	0.0	0.0	0.0	146.0	0.0	0.06066879	-0.078185835	1.015317225	3.52506	0.18312	-0.03052	3273190.0	1776544936.702284	0.0	1.0	-1.0	-1.0	-1.0	-1.0	-1.0	-1.0	-1.0	-1.0	0.0	marker	peace	Peace	22	0418
-68077.44	-54918.045	-104296.76999999999	-18382.23	0.0	0.0	0.0	0.0	0.0	0.0	0.0	0.0	0.0	0.0	0.0	0.0	0.0	0.0	146.0	0.0	0.06066879	-0.078185835	1.015317225	3.52506	0.18312	-0.03052	3273191.0	1776544936.702304	0.0	1.0	-1.0	-1.0	-1.0	-1.0	-1.0	-1.0	-1.0	-1.0	0.0	marker	peace	Peace	22	0418
-68103.0	-54914.67	-104382.135	-18432.36	0.0	0.0	0.0	0.0	0.0	0.0	0.0	0.0	0.0	0.0	0.0	0.0	0.0	0.0	146.0	0.0	0.06066879	-0.078185835	1.015317225	3.52506	0.18312	-0.03052	3273192.0	1776544936.707839	0.0	1.0	-1.0	-1.0	-1.0	-1.0	-1.0	-1.0	-1.0	-1.0	0.0	marker	peace	Peace	22	0418
-68080.77	-54908.729999999996	-104359.00499999999	-18414.719999999998	0.0	0.0	0.0	0.0	0.0	0.0	0.0	0.0	0.0	0.0	0.0	0.0	0.0	0.0	146.0	0.0	0.06066879	-0.078185835	1.015317225	3.52506	0.18312	-0.03052	3273193.0	1776544936.707855	0.0	1.0	-1.0	-1.0	-1.0	-1.0	-1.0	-1.0	-1.0	-1.0	0.0	marker	peace	Peace	22	0418
-68059.575	-54908.729999999996	-104332.995	-18381.015	0.0	0.0	0.0	0.0	0.0	0.0	0.0	0.0	0.0	0.0	0.0	0.0	0.0	0.0	146.0	0.0	0.06066879	-0.078185835	1.015317225	3.52506	0.18312	-0.03052	3273194.0	1776544936.714291	0.0	1.0	-1.0	-1.0	-1.0	-1.0	-1.0	-1.0	-1.0	-1.0	0.0	marker	peace	Peace	22	0418
-67988.16	-54911.295	-104286.105	-18346.59	0.0	0.0	0.0	0.0	0.0	0.0	0.0	0.0	0.0	0.0	0.0	0.0	0.0	0.0	146.0	0.0	0.06066879	-0.078185835	1.015317225	3.52506	0.18312	-0.03052	3273195.0	1776544936.714306	0.0	1.0	-1.0	-1.0	-1.0	-1.0	-1.0	-1.0	-1.0	-1.0	0.0	marker	peace	Peace	22	0418
-67960.755	-54907.604999999996	-104260.905	-18340.02	0.0	0.0	0.0	0.0	0.0	0.0	0.0	0.0	0.0	0.0	0.0	0.0	0.0	0.0	146.0	0.0	0.06066879	-0.078185835	1.015317225	3.52506	0.18312	-0.03052	3273196.0	1776544936.714324	0.0	1.0	-1.0	-1.0	-1.0	-1.0	-1.0	-1.0	-1.0	-1.0	0.0	marker	peace	Peace	22	0418
-68039.955	-54915.795	-104281.425	-18346.995	0.0	0.0	0.0	0.0	0.0	0.0	0.0	0.0	0.0	0.0	0.0	0.0	0.0	0.0	146.0	0.0	0.06066879	-0.078185835	1.015317225	3.52506	0.18312	-0.03052	3273197.0	1776544936.714338	0.0	1.0	-1.0	-1.0	-1.0	-1.0	-1.0	-1.0	-1.0	-1.0	0.0	marker	peace	Peace	22	0418
-68034.645	-54924.479999999996	-104307.20999999999	-18369.675	0.0	0.0	0.0	0.0	0.0	0.0	0.0	0.0	0.0	0.0	0.0	0.0	0.0	0.0	146.0	0.0	0.06066879	-0.078185835	1.015317225	3.52506	0.18312	-0.03052	3273198.0	1776544936.718374	0.0	1.0	-1.0	-1.0	-1.0	-1.0	-1.0	-1.0	-1.0	-1.0	0.0	marker	peace	Peace	22	0418
-68066.09999999999	-54918.45	-104313.87	-18366.524999999998	0.0	0.0	0.0	0.0	0.0	0.0	0.0	0.0	0.0	0.0	0.0	0.0	0.0	0.0	146.0	0.0	0.06066879	-0.078185835	1.015317225	3.52506	0.18312	-0.03052	3273199.0	1776544936.718389	0.0	1.0	-1.0	-1.0	-1.0	-1.0	-1.0	-1.0	-1.0	-1.0	0.0	marker	peace	Peace	22	0418
-68060.925	-54908.415	-104318.955	-18380.16	0.0	0.0	0.0	0.0	0.0	0.0	0.0	0.0	0.0	0.0	0.0	0.0	0.0	0.0	146.0	0.0	0.063659505	-0.079040325	1.00732164	3.2809	0.9919	-0.04578	3273200.0	1776544936.722334	0.0	1.0	-1.0	-1.0	-1.0	-1.0	-1.0	-1.0	-1.0	-1.0	0.0	marker	peace	Peace	22	0418
-68009.48999999999	-54915.57	-104317.92	-18389.7	0.0	0.0	0.0	0.0	0.0	0.0	0.0	0.0	0.0	0.0	0.0	0.0	0.0	0.0	146.0	0.0	0.063659505	-0.079040325	1.00732164	3.2809	0.9919	-0.04578	3273201.0	1776544936.722349	0.0	1.0	-1.0	-1.0	-1.0	-1.0	-1.0	-1.0	-1.0	-1.0	0.0	marker	peace	Peace	22	0418
-67919.04	-54928.619999999995	-104199.165	-18273.239999999998	0.0	0.0	0.0	0.0	0.0	0.0	0.0	0.0	0.0	0.0	0.0	0.0	0.0	0.0	146.0	0.0	0.063659505	-0.079040325	1.00732164	3.2809	0.9919	-0.04578	3273202.0	1776544936.726229	0.0	1.0	-1.0	-1.0	-1.0	-1.0	-1.0	-1.0	-1.0	-1.0	0.0	marker	peace	Peace	22	0418
-68043.915	-54937.89	-104239.75499999999	-18293.355	0.0	0.0	0.0	0.0	0.0	0.0	0.0	0.0	0.0	0.0	0.0	0.0	0.0	0.0	146.0	0.0	0.063659505	-0.079040325	1.00732164	3.2809	0.9919	-0.04578	3273203.0	1776544936.726245	0.0	1.0	-1.0	-1.0	-1.0	-1.0	-1.0	-1.0	-1.0	-1.0	0.0	marker	peace	Peace	22	0418
-68062.77	-54945.405	-104339.295	-18380.835	0.0	0.0	0.0	0.0	0.0	0.0	0.0	0.0	0.0	0.0	0.0	0.0	0.0	0.0	146.0	0.0	0.063659505	-0.079040325	1.00732164	3.2809	0.9919	-0.04578	3273204.0	1776544936.73036	0.0	1.0	-1.0	-1.0	-1.0	-1.0	-1.0	-1.0	-1.0	-1.0	0.0	marker	peace	Peace	22	0418
-67960.035	-54952.11	-104219.86499999999	-18292.545	0.0	0.0	0.0	0.0	0.0	0.0	0.0	0.0	0.0	0.0	0.0	0.0	0.0	0.0	146.0	0.0	0.063659505	-0.079040325	1.00732164	3.2809	0.9919	-0.04578	3273205.0	1776544936.730375	0.0	1.0	-1.0	-1.0	-1.0	-1.0	-1.0	-1.0	-1.0	-1.0	0.0	marker	peace	Peace	22	0418
-67931.73	-54954.945	-104131.89	-18237.42	0.0	0.0	0.0	0.0	0.0	0.0	0.0	0.0	0.0	0.0	0.0	0.0	0.0	0.0	146.0	0.0	0.063659505	-0.079040325	1.00732164	3.2809	0.9919	-0.04578	3273206.0	1776544936.734345	0.0	1.0	-1.0	-1.0	-1.0	-1.0	-1.0	-1.0	-1.0	-1.0	0.0	marker	peace	Peace	22	0418
-68025.42	-54959.939999999995	-104271.93	-18377.37	0.0	0.0	0.0	0.0	0.0	0.0	0.0	0.0	0.0	0.0	0.0	0.0	0.0	0.0	146.0	0.0	0.063659505	-0.079040325	1.00732164	3.2809	0.9919	-0.04578	3273207.0	1776544936.734348	0.0	1.0	-1.0	-1.0	-1.0	-1.0	-1.0	-1.0	-1.0	-1.0	0.0	marker	peace	Peace	22	0418
-67999.41	-54963.134999999995	-104295.69	-18376.649999999998	0.0	0.0	0.0	0.0	0.0	0.0	0.0	0.0	0.0	0.0	0.0	0.0	0.0	0.0	146.0	0.0	0.063659505	-0.079040325	1.00732164	3.2809	0.9919	-0.04578	3273208.0	1776544936.738263	0.0	1.0	-1.0	-1.0	-1.0	-1.0	-1.0	-1.0	-1.0	-1.0	0.0	marker	peace	Peace	22	0418
-68019.795	-54966.78	-104338.53	-18387.18	0.0	0.0	0.0	0.0	0.0	0.0	0.0	0.0	0.0	0.0	0.0	0.0	0.0	0.0	146.0	0.0	0.063659505	-0.079040325	1.00732164	3.2809	0.9919	-0.04578	3273209.0	1776544936.738278	0.0	1.0	-1.0	-1.0	-1.0	-1.0	-1.0	-1.0	-1.0	-1.0	0.0	marker	peace	Peace	22	0418
-68074.69499999999	-54964.125	-104381.37	-18409.905	0.0	0.0	0.0	0.0	0.0	0.0	0.0	0.0	0.0	0.0	0.0	0.0	0.0	0.0	146.0	0.0	0.0598143	-0.080138955	1.007260605	1.31236	1.4039199999999998	0.12208	3273210.0	1776544936.742438	0.0	1.0	-1.0	-1.0	-1.0	-1.0	-1.0	-1.0	-1.0	-1.0	0.0	marker	peace	Peace	22	0418
-68067.405	-54961.244999999995	-104335.29	-18379.71	0.0	0.0	0.0	0.0	0.0	0.0	0.0	0.0	0.0	0.0	0.0	0.0	0.0	0.0	146.0	0.0	0.0598143	-0.080138955	1.007260605	1.31236	1.4039199999999998	0.12208	3273211.0	1776544936.742454	0.0	1.0	-1.0	-1.0	-1.0	-1.0	-1.0	-1.0	-1.0	-1.0	0.0	marker	peace	Peace	22	0418
-67997.925	-54966.15	-104266.935	-18346.68	0.0	0.0	0.0	0.0	0.0	0.0	0.0	0.0	0.0	0.0	0.0	0.0	0.0	0.0	146.0	0.0	0.0598143	-0.080138955	1.007260605	1.31236	1.4039199999999998	0.12208	3273212.0	1776544936.746319	0.0	1.0	-1.0	-1.0	-1.0	-1.0	-1.0	-1.0	-1.0	-1.0	0.0	marker	peace	Peace	22	0418
-67963.995	-54970.56	-104172.525	-18266.67	0.0	0.0	0.0	0.0	0.0	0.0	0.0	0.0	0.0	0.0	0.0	0.0	0.0	0.0	146.0	0.0	0.0598143	-0.080138955	1.007260605	1.31236	1.4039199999999998	0.12208	3273213.0	1776544936.746334	0.0	1.0	-1.0	-1.0	-1.0	-1.0	-1.0	-1.0	-1.0	-1.0	0.0	marker	peace	Peace	22	0418
-68041.62	-54980.685	-104216.84999999999	-18330.12	0.0	0.0	0.0	0.0	0.0	0.0	0.0	0.0	0.0	0.0	0.0	0.0	0.0	0.0	146.0	0.0	0.0598143	-0.080138955	1.007260605	1.31236	1.4039199999999998	0.12208	3273214.0	1776544936.754385	0.0	1.0	-1.0	-1.0	-1.0	-1.0	-1.0	-1.0	-1.0	-1.0	0.0	marker	peace	Peace	22	0418
-68045.175	-54979.11	-104282.14499999999	-18365.805	0.0	0.0	0.0	0.0	0.0	0.0	0.0	0.0	0.0	0.0	0.0	0.0	0.0	0.0	146.0	0.0	0.0598143	-0.080138955	1.007260605	1.31236	1.4039199999999998	0.12208	3273215.0	1776544936.754389	0.0	1.0	-1.0	-1.0	-1.0	-1.0	-1.0	-1.0	-1.0	-1.0	0.0	marker	peace	Peace	22	0418
-68007.645	-54969.659999999996	-104284.39499999999	-18328.59	0.0	0.0	0.0	0.0	0.0	0.0	0.0	0.0	0.0	0.0	0.0	0.0	0.0	0.0	146.0	0.0	0.0598143	-0.080138955	1.007260605	1.31236	1.4039199999999998	0.12208	3273216.0	1776544936.754395	0.0	1.0	-1.0	-1.0	-1.0	-1.0	-1.0	-1.0	-1.0	-1.0	0.0	marker	peace	Peace	22	0418
-67990.095	-54959.31	-104254.065	-18315.045	0.0	0.0	0.0	0.0	0.0	0.0	0.0	0.0	0.0	0.0	0.0	0.0	0.0	0.0	146.0	0.0	0.0598143	-0.080138955	1.007260605	1.31236	1.4039199999999998	0.12208	3273217.0	1776544936.754399	0.0	1.0	-1.0	-1.0	-1.0	-1.0	-1.0	-1.0	-1.0	-1.0	0.0	marker	peace	Peace	22	0418
-68024.925	-54957.555	-104315.44499999999	-18363.735	0.0	0.0	0.0	0.0	0.0	0.0	0.0	0.0	0.0	0.0	0.0	0.0	0.0	0.0	146.0	0.0	0.0598143	-0.080138955	1.007260605	1.31236	1.4039199999999998	0.12208	3273218.0	1776544936.758283	0.0	1.0	-1.0	-1.0	-1.0	-1.0	-1.0	-1.0	-1.0	-1.0	0.0	marker	peace	Peace	22	0418
-68037.12	-54959.445	-104311.03499999999	-18365.219999999998	0.0	0.0	0.0	0.0	0.0	0.0	0.0	0.0	0.0	0.0	0.0	0.0	0.0	0.0	146.0	0.0	0.0598143	-0.080138955	1.007260605	1.31236	1.4039199999999998	0.12208	3273219.0	1776544936.758297	0.0	1.0	-1.0	-1.0	-1.0	-1.0	-1.0	-1.0	-1.0	-1.0	0.0	marker	peace	Peace	22	0418
-68050.215	-54959.354999999996	-104330.34	-18369.54	0.0	0.0	0.0	0.0	0.0	0.0	0.0	0.0	0.0	0.0	0.0	0.0	0.0	0.0	146.0	0.0	0.0549315	-0.08288553	1.0119603	1.12924	1.19028	0.18312	3273220.0	1776544936.762435	0.0	1.0	-1.0	-1.0	-1.0	-1.0	-1.0	-1.0	-1.0	-1.0	0.0	marker	peace	Peace	22	0418
-68042.205	-54966.195	-104309.28	-18364.545	0.0	0.0	0.0	0.0	0.0	0.0	0.0	0.0	0.0	0.0	0.0	0.0	0.0	0.0	146.0	0.0	0.0549315	-0.08288553	1.0119603	1.12924	1.19028	0.18312	3273221.0	1776544936.762451	0.0	1.0	-1.0	-1.0	-1.0	-1.0	-1.0	-1.0	-1.0	-1.0	0.0	marker	peace	Peace	22	0418
-68037.705	-54976.814999999995	-104280.39	-18346.725	0.0	0.0	0.0	0.0	0.0	0.0	0.0	0.0	0.0	0.0	0.0	0.0	0.0	0.0	146.0	0.0	0.0549315	-0.08288553	1.0119603	1.12924	1.19028	0.18312	3273222.0	1776544936.766185	0.0	1.0	-1.0	-1.0	-1.0	-1.0	-1.0	-1.0	-1.0	-1.0	0.0	marker	peace	Peace	22	0418
-67996.89	-54984.915	-104209.33499999999	-18308.385	0.0	0.0	0.0	0.0	0.0	0.0	0.0	0.0	0.0	0.0	0.0	0.0	0.0	0.0	146.0	0.0	0.0549315	-0.08288553	1.0119603	1.12924	1.19028	0.18312	3273223.0	1776544936.766201	0.0	1.0	-1.0	-1.0	-1.0	-1.0	-1.0	-1.0	-1.0	-1.0	0.0	marker	peace	Peace	22	0418
-67956.3	-54985.14	-104148.81	-18246.149999999998	0.0	0.0	0.0	0.0	0.0	0.0	0.0	0.0	0.0	0.0	0.0	0.0	0.0	0.0	146.0	0.0	0.0549315	-0.08288553	1.0119603	1.12924	1.19028	0.18312	3273224.0	1776544936.773371	0.0	1.0	-1.0	-1.0	-1.0	-1.0	-1.0	-1.0	-1.0	-1.0	0.0	marker	peace	Peace	22	0418
-67941.405	-54974.655	-104239.305	-18270.899999999998	0.0	0.0	0.0	0.0	0.0	0.0	0.0	0.0	0.0	0.0	0.0	0.0	0.0	0.0	146.0	0.0	0.0549315	-0.08288553	1.0119603	1.12924	1.19028	0.18312	3273225.0	1776544936.773386	0.0	1.0	-1.0	-1.0	-1.0	-1.0	-1.0	-1.0	-1.0	-1.0	0.0	marker	peace	Peace	22	0418
-68031.765	-54961.29	-104313.28499999999	-18362.024999999998	0.0	0.0	0.0	0.0	0.0	0.0	0.0	0.0	0.0	0.0	0.0	0.0	0.0	0.0	146.0	0.0	0.0549315	-0.08288553	1.0119603	1.12924	1.19028	0.18312	3273226.0	1776544936.774437	0.0	1.0	-1.0	-1.0	-1.0	-1.0	-1.0	-1.0	-1.0	-1.0	0.0	marker	peace	Peace	22	0418
-68094.98999999999	-54951.119999999995	-104364.315	-18422.954999999998	0.0	0.0	0.0	0.0	0.0	0.0	0.0	0.0	0.0	0.0	0.0	0.0	0.0	0.0	146.0	0.0	0.0549315	-0.08288553	1.0119603	1.12924	1.19028	0.18312	3273227.0	1776544936.774451	0.0	1.0	-1.0	-1.0	-1.0	-1.0	-1.0	-1.0	-1.0	-1.0	0.0	marker	peace	Peace	22	0418
-68081.805	-54947.295	-104346.22499999999	-18412.739999999998	0.0	0.0	0.0	0.0	0.0	0.0	0.0	0.0	0.0	0.0	0.0	0.0	0.0	0.0	146.0	0.0	0.0549315	-0.08288553	1.0119603	1.12924	1.19028	0.18312	3273228.0	1776544936.778433	0.0	1.0	-1.0	-1.0	-1.0	-1.0	-1.0	-1.0	-1.0	-1.0	0.0	marker	peace	Peace	22	0418
-68071.41	-54962.189999999995	-104332.00499999999	-18416.969999999998	0.0	0.0	0.0	0.0	0.0	0.0	0.0	0.0	0.0	0.0	0.0	0.0	0.0	0.0	146.0	0.0	0.0549315	-0.08288553	1.0119603	1.12924	1.19028	0.18312	3273229.0	1776544936.778448	0.0	1.0	-1.0	-1.0	-1.0	-1.0	-1.0	-1.0	-1.0	-1.0	0.0	marker	peace	Peace	22	0418
-68069.79	-54968.265	-104332.23	-18390.059999999998	0.0	0.0	0.0	0.0	0.0	0.0	0.0	0.0	0.0	0.0	0.0	0.0	0.0	0.0	146.0	0.0	0.05761704	-0.08386209	1.016659995	2.48738	1.2055399999999998	-0.16785999999999998	3273230.0	1776544936.782883	0.0	1.0	-1.0	-1.0	-1.0	-1.0	-1.0	-1.0	-1.0	-1.0	0.0	marker	peace	Peace	22	0418
-68049.0	-54972.9	-104288.48999999999	-18353.34	0.0	0.0	0.0	0.0	0.0	0.0	0.0	0.0	0.0	0.0	0.0	0.0	0.0	0.0	146.0	0.0	0.05761704	-0.08386209	1.016659995	2.48738	1.2055399999999998	-0.16785999999999998	3273231.0	1776544936.782898	0.0	1.0	-1.0	-1.0	-1.0	-1.0	-1.0	-1.0	-1.0	-1.0	0.0	marker	peace	Peace	22	0418
-68004.54	-54976.275	-104250.59999999999	-18325.125	0.0	0.0	0.0	0.0	0.0	0.0	0.0	0.0	0.0	0.0	0.0	0.0	0.0	0.0	146.0	0.0	0.05761704	-0.08386209	1.016659995	2.48738	1.2055399999999998	-0.16785999999999998	3273232.0	1776544936.788867	0.0	1.0	-1.0	-1.0	-1.0	-1.0	-1.0	-1.0	-1.0	-1.0	0.0	marker	peace	Peace	22	0418
-68006.43	-54967.409999999996	-104289.705	-18346.545	0.0	0.0	0.0	0.0	0.0	0.0	0.0	0.0	0.0	0.0	0.0	0.0	0.0	0.0	146.0	0.0	0.05761704	-0.08386209	1.016659995	2.48738	1.2055399999999998	-0.16785999999999998	3273233.0	1776544936.788872	0.0	1.0	-1.0	-1.0	-1.0	-1.0	-1.0	-1.0	-1.0	-1.0	0.0	marker	peace	Peace	22	0418
-67984.155	-54947.88	-104289.25499999999	-18339.434999999998	0.0	0.0	0.0	0.0	0.0	0.0	0.0	0.0	0.0	0.0	0.0	0.0	0.0	0.0	146.0	0.0	0.05761704	-0.08386209	1.016659995	2.48738	1.2055399999999998	-0.16785999999999998	3273234.0	1776544936.792	0.0	1.0	-1.0	-1.0	-1.0	-1.0	-1.0	-1.0	-1.0	-1.0	0.0	marker	peace	Peace	22	0418
-68039.73	-54935.415	-104331.105	-18383.265	0.0	0.0	0.0	0.0	0.0	0.0	0.0	0.0	0.0	0.0	0.0	0.0	0.0	0.0	146.0	0.0	0.05761704	-0.08386209	1.016659995	2.48738	1.2055399999999998	-0.16785999999999998	3273235.0	1776544936.792015	0.0	1.0	-1.0	-1.0	-1.0	-1.0	-1.0	-1.0	-1.0	-1.0	0.0	marker	peace	Peace	22	0418
-68067.72	-54931.049999999996	-104353.2	-18397.844999999998	0.0	0.0	0.0	0.0	0.0	0.0	0.0	0.0	0.0	0.0	0.0	0.0	0.0	0.0	146.0	0.0	0.05761704	-0.08386209	1.016659995	2.48738	1.2055399999999998	-0.16785999999999998	3273236.0	1776544936.795056	0.0	1.0	-1.0	-1.0	-1.0	-1.0	-1.0	-1.0	-1.0	-1.0	0.0	marker	peace	Peace	22	0418
-68032.935	-54927.314999999995	-104305.095	-18358.425	0.0	0.0	0.0	0.0	0.0	0.0	0.0	0.0	0.0	0.0	0.0	0.0	0.0	0.0	146.0	0.0	0.05761704	-0.08386209	1.016659995	2.48738	1.2055399999999998	-0.16785999999999998	3273237.0	1776544936.79508	0.0	1.0	-1.0	-1.0	-1.0	-1.0	-1.0	-1.0	-1.0	-1.0	0.0	marker	peace	Peace	22	0418
-68057.19	-54924.119999999995	-104305.635	-18365.355	0.0	0.0	0.0	0.0	0.0	0.0	0.0	0.0	0.0	0.0	0.0	0.0	0.0	0.0	146.0	0.0	0.05761704	-0.08386209	1.016659995	2.48738	1.2055399999999998	-0.16785999999999998	3273238.0	1776544936.798604	0.0	1.0	-1.0	-1.0	-1.0	-1.0	-1.0	-1.0	-1.0	-1.0	0.0	marker	peace	Peace	22	0418
-68028.93	-54933.93	-104284.485	-18354.195	0.0	0.0	0.0	0.0	0.0	0.0	0.0	0.0	0.0	0.0	0.0	0.0	0.0	0.0	146.0	0.0	0.05761704	-0.08386209	1.016659995	2.48738	1.2055399999999998	-0.16785999999999998	3273239.0	1776544936.798612	0.0	1.0	-1.0	-1.0	-1.0	-1.0	-1.0	-1.0	-1.0	-1.0	0.0	marker	peace	Peace	22	0418
-67887.045	-54932.265	-104163.075	-18226.62	0.0	0.0	0.0	0.0	0.0	0.0	0.0	0.0	0.0	0.0	0.0	0.0	0.0	0.0	146.0	0.0	0.05969223	-0.08642556	1.0178806950000001	3.0672599999999997	0.88508	-0.62566	3273240.0	1776544936.802544	0.0	1.0	-1.0	-1.0	-1.0	-1.0	-1.0	-1.0	-1.0	-1.0	0.0	marker	peace	Peace	22	0418
-67844.655	-54919.395	-104113.08	-18158.489999999998	0.0	0.0	0.0	0.0	0.0	0.0	0.0	0.0	0.0	0.0	0.0	0.0	0.0	0.0	146.0	0.0	0.05969223	-0.08642556	1.0178806950000001	3.0672599999999997	0.88508	-0.62566	3273241.0	1776544936.80255	0.0	1.0	-1.0	-1.0	-1.0	-1.0	-1.0	-1.0	-1.0	-1.0	0.0	marker	peace	Peace	22	0418
-68154.93	-54928.755	-104398.245	-18454.68	0.0	0.0	0.0	0.0	0.0	0.0	0.0	0.0	0.0	0.0	0.0	0.0	0.0	0.0	146.0	0.0	0.05969223	-0.08642556	1.0178806950000001	3.0672599999999997	0.88508	-0.62566	3273242.0	1776544936.806513	0.0	1.0	-1.0	-1.0	-1.0	-1.0	-1.0	-1.0	-1.0	-1.0	0.0	marker	peace	Peace	22	0418
-68072.58	-54918.314999999995	-104323.815	-18407.88	0.0	0.0	0.0	0.0	0.0	0.0	0.0	0.0	0.0	0.0	0.0	0.0	0.0	0.0	146.0	0.0	0.05969223	-0.08642556	1.0178806950000001	3.0672599999999997	0.88508	-0.62566	3273243.0	1776544936.806519	0.0	1.0	-1.0	-1.0	-1.0	-1.0	-1.0	-1.0	-1.0	-1.0	0.0	marker	peace	Peace	22	0418
-68035.05	-54911.115	-104316.3	-18389.34	0.0	0.0	0.0	0.0	0.0	0.0	0.0	0.0	0.0	0.0	0.0	0.0	0.0	0.0	146.0	0.0	0.05969223	-0.08642556	1.0178806950000001	3.0672599999999997	0.88508	-0.62566	3273244.0	1776544936.810649	0.0	1.0	-1.0	-1.0	-1.0	-1.0	-1.0	-1.0	-1.0	-1.0	0.0	marker	peace	Peace	22	0418
-68079.105	-54901.845	-104371.92	-18410.94	0.0	0.0	0.0	0.0	0.0	0.0	0.0	0.0	0.0	0.0	0.0	0.0	0.0	0.0	146.0	0.0	0.05969223	-0.08642556	1.0178806950000001	3.0672599999999997	0.88508	-0.62566	3273245.0	1776544936.810671	0.0	1.0	-1.0	-1.0	-1.0	-1.0	-1.0	-1.0	-1.0	-1.0	0.0	marker	peace	Peace	22	0418
-68023.17	-54895.185	-104288.805	-18340.515	0.0	0.0	0.0	0.0	0.0	0.0	0.0	0.0	0.0	0.0	0.0	0.0	0.0	0.0	146.0	0.0	0.05969223	-0.08642556	1.0178806950000001	3.0672599999999997	0.88508	-0.62566	3273246.0	1776544936.817098	0.0	1.0	-1.0	-1.0	-1.0	-1.0	-1.0	-1.0	-1.0	-1.0	0.0	marker	peace	Peace	22	0418
-67929.165	-54895.545	-104177.43	-18256.815	0.0	0.0	0.0	0.0	0.0	0.0	0.0	0.0	0.0	0.0	0.0	0.0	0.0	0.0	146.0	0.0	0.05969223	-0.08642556	1.0178806950000001	3.0672599999999997	0.88508	-0.62566	3273247.0	1776544936.817119	0.0	1.0	-1.0	-1.0	-1.0	-1.0	-1.0	-1.0	-1.0	-1.0	0.0	marker	peace	Peace	22	0418
-68027.48999999999	-54904.229999999996	-104280.84	-18373.815	0.0	0.0	0.0	0.0	0.0	0.0	0.0	0.0	0.0	0.0	0.0	0.0	0.0	0.0	146.0	0.0	0.05969223	-0.08642556	1.0178806950000001	3.0672599999999997	0.88508	-0.62566	3273248.0	1776544936.818573	0.0	1.0	-1.0	-1.0	-1.0	-1.0	-1.0	-1.0	-1.0	-1.0	0.0	marker	peace	Peace	22	0418
-68039.595	-54908.549999999996	-104288.44499999999	-18376.469999999998	0.0	0.0	0.0	0.0	0.0	0.0	0.0	0.0	0.0	0.0	0.0	0.0	0.0	0.0	146.0	0.0	0.05969223	-0.08642556	1.0178806950000001	3.0672599999999997	0.88508	-0.62566	3273249.0	1776544936.818589	0.0	1.0	-1.0	-1.0	-1.0	-1.0	-1.0	-1.0	-1.0	-1.0	0.0	marker	peace	Peace	22	0418
-68031.405	-54902.07	-104312.295	-18365.489999999998	0.0	0.0	0.0	0.0	0.0	0.0	0.0	0.0	0.0	0.0	0.0	0.0	0.0	0.0	146.0	0.0	0.0585936	-0.087585225	1.01391342	4.852679999999999	1.55652	-1.19028	3273250.0	1776544936.822514	0.0	1.0	-1.0	-1.0	-1.0	-1.0	-1.0	-1.0	-1.0	-1.0	0.0	marker	peace	Peace	22	0418
-68033.385	-54888.93	-104306.625	-18356.715	0.0	0.0	0.0	0.0	0.0	0.0	0.0	0.0	0.0	0.0	0.0	0.0	0.0	0.0	146.0	0.0	0.0585936	-0.087585225	1.01391342	4.852679999999999	1.55652	-1.19028	3273251.0	1776544936.822519	0.0	1.0	-1.0	-1.0	-1.0	-1.0	-1.0	-1.0	-1.0	-1.0	0.0	marker	peace	Peace	22	0418
-68039.45999999999	-54881.595	-104270.22	-18343.305	0.0	0.0	0.0	0.0	0.0	0.0	0.0	0.0	0.0	0.0	0.0	0.0	0.0	0.0	146.0	0.0	0.0585936	-0.087585225	1.01391342	4.852679999999999	1.55652	-1.19028	3273252.0	1776544936.826693	0.0	1.0	-1.0	-1.0	-1.0	-1.0	-1.0	-1.0	-1.0	-1.0	0.0	marker	peace	Peace	22	0418
-68040.94499999999	-54892.979999999996	-104262.03	-18364.05	0.0	0.0	0.0	0.0	0.0	0.0	0.0	0.0	0.0	0.0	0.0	0.0	0.0	0.0	146.0	0.0	0.0585936	-0.087585225	1.01391342	4.852679999999999	1.55652	-1.19028	3273253.0	1776544936.826709	0.0	1.0	-1.0	-1.0	-1.0	-1.0	-1.0	-1.0	-1.0	-1.0	0.0	marker	peace	Peace	22	0418
-68070.87	-54906.84	-104271.39	-18368.37	0.0	0.0	0.0	0.0	0.0	0.0	0.0	0.0	0.0	0.0	0.0	0.0	0.0	0.0	146.0	0.0	0.0585936	-0.087585225	1.01391342	4.852679999999999	1.55652	-1.19028	3273254.0	1776544936.830861	0.0	1.0	-1.0	-1.0	-1.0	-1.0	-1.0	-1.0	-1.0	-1.0	0.0	marker	peace	Peace	22	0418
-68036.805	-54914.085	-104272.73999999999	-18368.28	0.0	0.0	0.0	0.0	0.0	0.0	0.0	0.0	0.0	0.0	0.0	0.0	0.0	0.0	146.0	0.0	0.0585936	-0.087585225	1.01391342	4.852679999999999	1.55652	-1.19028	3273255.0	1776544936.830876	0.0	1.0	-1.0	-1.0	-1.0	-1.0	-1.0	-1.0	-1.0	-1.0	0.0	marker	peace	Peace	22	0418
-67970.88	-54925.38	-104278.68	-18366.344999999998	0.0	0.0	0.0	0.0	0.0	0.0	0.0	0.0	0.0	0.0	0.0	0.0	0.0	0.0	146.0	0.0	0.0585936	-0.087585225	1.01391342	4.852679999999999	1.55652	-1.19028	3273256.0	1776544936.834742	0.0	1.0	-1.0	-1.0	-1.0	-1.0	-1.0	-1.0	-1.0	-1.0	0.0	marker	peace	Peace	22	0418
-67953.105	-54922.454999999994	-104263.425	-18330.524999999998	0.0	0.0	0.0	0.0	0.0	0.0	0.0	0.0	0.0	0.0	0.0	0.0	0.0	0.0	146.0	0.0	0.0585936	-0.087585225	1.01391342	4.852679999999999	1.55652	-1.19028	3273257.0	1776544936.834757	0.0	1.0	-1.0	-1.0	-1.0	-1.0	-1.0	-1.0	-1.0	-1.0	0.0	marker	peace	Peace	22	0418
-67970.565	-54921.509999999995	-104241.59999999999	-18272.25	0.0	0.0	0.0	0.0	0.0	0.0	0.0	0.0	0.0	0.0	0.0	0.0	0.0	0.0	146.0	0.0	0.0585936	-0.087585225	1.01391342	4.852679999999999	1.55652	-1.19028	3273258.0	1776544936.838664	0.0	1.0	-1.0	-1.0	-1.0	-1.0	-1.0	-1.0	-1.0	-1.0	0.0	marker	peace	Peace	22	0418
-68112.09	-54916.92	-104361.795	-18407.88	0.0	0.0	0.0	0.0	0.0	0.0	0.0	0.0	0.0	0.0	0.0	0.0	0.0	0.0	146.0	0.0	0.0585936	-0.087585225	1.01391342	4.852679999999999	1.55652	-1.19028	3273259.0	1776544936.838679	0.0	1.0	-1.0	-1.0	-1.0	-1.0	-1.0	-1.0	-1.0	-1.0	0.0	marker	peace	Peace	22	0418
-68095.08	-54910.125	-104378.985	-18433.934999999998	0.0	0.0	0.0	0.0	0.0	0.0	0.0	0.0	0.0	0.0	0.0	0.0	0.0	0.0	146.0	0.0	0.05529771	-0.08618142	1.01696517	2.92992	0.88508	-1.25132	3273260.0	1776544936.842653	0.0	1.0	-1.0	-1.0	-1.0	-1.0	-1.0	-1.0	-1.0	-1.0	0.0	marker	peace	Peace	22	0418
-68070.59999999999	-54909.09	-104353.155	-18389.295	0.0	0.0	0.0	0.0	0.0	0.0	0.0	0.0	0.0	0.0	0.0	0.0	0.0	0.0	146.0	0.0	0.05529771	-0.08618142	1.01696517	2.92992	0.88508	-1.25132	3273261.0	1776544936.842668	0.0	1.0	-1.0	-1.0	-1.0	-1.0	-1.0	-1.0	-1.0	-1.0	0.0	marker	peace	Peace	22	0418
-68057.45999999999	-54911.475	-104330.51999999999	-18366.03	0.0	0.0	0.0	0.0	0.0	0.0	0.0	0.0	0.0	0.0	0.0	0.0	0.0	0.0	146.0	0.0	0.05529771	-0.08618142	1.01696517	2.92992	0.88508	-1.25132	3273262.0	1776544936.846745	0.0	1.0	-1.0	-1.0	-1.0	-1.0	-1.0	-1.0	-1.0	-1.0	0.0	marker	peace	Peace	22	0418
-68020.425	-54916.2	-104266.08	-18341.325	0.0	0.0	0.0	0.0	0.0	0.0	0.0	0.0	0.0	0.0	0.0	0.0	0.0	0.0	146.0	0.0	0.05529771	-0.08618142	1.01696517	2.92992	0.88508	-1.25132	3273263.0	1776544936.846759	0.0	1.0	-1.0	-1.0	-1.0	-1.0	-1.0	-1.0	-1.0	-1.0	0.0	marker	peace	Peace	22	0418
-67966.965	-54919.305	-104216.12999999999	-18309.87	0.0	0.0	0.0	0.0	0.0	0.0	0.0	0.0	0.0	0.0	0.0	0.0	0.0	0.0	146.0	0.0	0.05529771	-0.08618142	1.01696517	2.92992	0.88508	-1.25132	3273264.0	1776544936.850685	0.0	1.0	-1.0	-1.0	-1.0	-1.0	-1.0	-1.0	-1.0	-1.0	0.0	marker	peace	Peace	22	0418
-67981.41	-54926.189999999995	-104232.375	-18301.635	0.0	0.0	0.0	0.0	0.0	0.0	0.0	0.0	0.0	0.0	0.0	0.0	0.0	0.0	146.0	0.0	0.05529771	-0.08618142	1.01696517	2.92992	0.88508	-1.25132	3273265.0	1776544936.8507	0.0	1.0	-1.0	-1.0	-1.0	-1.0	-1.0	-1.0	-1.0	-1.0	0.0	marker	peace	Peace	22	0418
-68047.605	-54932.31	-104292.315	-18357.344999999998	0.0	0.0	0.0	0.0	0.0	0.0	0.0	0.0	0.0	0.0	0.0	0.0	0.0	0.0	146.0	0.0	0.05529771	-0.08618142	1.01696517	2.92992	0.88508	-1.25132	3273266.0	1776544936.854459	0.0	1.0	-1.0	-1.0	-1.0	-1.0	-1.0	-1.0	-1.0	-1.0	0.0	marker	peace	Peace	22	0418
-68076.72	-54935.729999999996	-104303.925	-18373.635	0.0	0.0	0.0	0.0	0.0	0.0	0.0	0.0	0.0	0.0	0.0	0.0	0.0	0.0	146.0	0.0	0.05529771	-0.08618142	1.01696517	2.92992	0.88508	-1.25132	3273267.0	1776544936.854474	0.0	1.0	-1.0	-1.0	-1.0	-1.0	-1.0	-1.0	-1.0	-1.0	0.0	marker	peace	Peace	22	0418
-68015.11499999999	-54934.965	-104274.58499999999	-18344.969999999998	0.0	0.0	0.0	0.0	0.0	0.0	0.0	0.0	0.0	0.0	0.0	0.0	0.0	0.0	146.0	0.0	0.05529771	-0.08618142	1.01696517	2.92992	0.88508	-1.25132	3273268.0	1776544936.860094	0.0	1.0	-1.0	-1.0	-1.0	-1.0	-1.0	-1.0	-1.0	-1.0	0.0	marker	peace	Peace	22	0418
-67924.70999999999	-54923.759999999995	-104202.26999999999	-18300.42	0.0	0.0	0.0	0.0	0.0	0.0	0.0	0.0	0.0	0.0	0.0	0.0	0.0	0.0	146.0	0.0	0.05529771	-0.08618142	1.01696517	2.92992	0.88508	-1.25132	3273269.0	1776544936.860109	0.0	1.0	-1.0	-1.0	-1.0	-1.0	-1.0	-1.0	-1.0	-1.0	0.0	marker	peace	Peace	22	0418
-67999.77	-54923.174999999996	-104259.015	-18328.545	0.0	0.0	0.0	0.0	0.0	0.0	0.0	0.0	0.0	0.0	0.0	0.0	0.0	0.0	146.0	0.0	0.05114733	-0.08032206	1.019345535	1.17502	0.44254	-0.9308599999999999	3273270.0	1776544936.863315	0.0	1.0	-1.0	-1.0	-1.0	-1.0	-1.0	-1.0	-1.0	-1.0	0.0	marker	peace	Peace	22	0418
-68096.25	-54934.155	-104352.345	-18373.59	0.0	0.0	0.0	0.0	0.0	0.0	0.0	0.0	0.0	0.0	0.0	0.0	0.0	0.0	146.0	0.0	0.05114733	-0.08032206	1.019345535	1.17502	0.44254	-0.9308599999999999	3273271.0	1776544936.86333	0.0	1.0	-1.0	-1.0	-1.0	-1.0	-1.0	-1.0	-1.0	-1.0	0.0	marker	peace	Peace	22	0418
-68002.47	-54948.465	-104287.815	-18338.805	0.0	0.0	0.0	0.0	0.0	0.0	0.0	0.0	0.0	0.0	0.0	0.0	0.0	0.0	146.0	0.0	0.05114733	-0.08032206	1.019345535	1.17502	0.44254	-0.9308599999999999	3273272.0	1776544936.866811	0.0	1.0	-1.0	-1.0	-1.0	-1.0	-1.0	-1.0	-1.0	-1.0	0.0	marker	peace	Peace	22	0418
-67918.005	-54956.79	-104184.81	-18261.18	0.0	0.0	0.0	0.0	0.0	0.0	0.0	0.0	0.0	0.0	0.0	0.0	0.0	0.0	146.0	0.0	0.05114733	-0.08032206	1.019345535	1.17502	0.44254	-0.9308599999999999	3273273.0	1776544936.866826	0.0	1.0	-1.0	-1.0	-1.0	-1.0	-1.0	-1.0	-1.0	-1.0	0.0	marker	peace	Peace	22	0418
-68006.43	-54970.064999999995	-104203.34999999999	-18277.92	0.0	0.0	0.0	0.0	0.0	0.0	0.0	0.0	0.0	0.0	0.0	0.0	0.0	0.0	146.0	0.0	0.05114733	-0.08032206	1.019345535	1.17502	0.44254	-0.9308599999999999	3273274.0	1776544936.87509	0.0	1.0	-1.0	-1.0	-1.0	-1.0	-1.0	-1.0	-1.0	-1.0	0.0	marker	peace	Peace	22	0418
-68084.64	-54974.25	-104311.98	-18383.489999999998	0.0	0.0	0.0	0.0	0.0	0.0	0.0	0.0	0.0	0.0	0.0	0.0	0.0	0.0	146.0	0.0	0.05114733	-0.08032206	1.019345535	1.17502	0.44254	-0.9308599999999999	3273275.0	1776544936.875105	0.0	1.0	-1.0	-1.0	-1.0	-1.0	-1.0	-1.0	-1.0	-1.0	0.0	marker	peace	Peace	22	0418
-68081.13	-54976.68	-104356.03499999999	-18421.29	0.0	0.0	0.0	0.0	0.0	0.0	0.0	0.0	0.0	0.0	0.0	0.0	0.0	0.0	146.0	0.0	0.05114733	-0.08032206	1.019345535	1.17502	0.44254	-0.9308599999999999	3273276.0	1776544936.875122	0.0	1.0	-1.0	-1.0	-1.0	-1.0	-1.0	-1.0	-1.0	-1.0	0.0	marker	peace	Peace	22	0418
-68021.415	-54966.915	-104302.44	-18392.715	0.0	0.0	0.0	0.0	0.0	0.0	0.0	0.0	0.0	0.0	0.0	0.0	0.0	0.0	146.0	0.0	0.05114733	-0.08032206	1.019345535	1.17502	0.44254	-0.9308599999999999	3273277.0	1776544936.87513	0.0	1.0	-1.0	-1.0	-1.0	-1.0	-1.0	-1.0	-1.0	-1.0	0.0	marker	peace	Peace	22	0418
-67979.34	-54961.875	-104269.00499999999	-18369.315	0.0	0.0	0.0	0.0	0.0	0.0	0.0	0.0	0.0	0.0	0.0	0.0	0.0	0.0	146.0	0.0	0.05114733	-0.08032206	1.019345535	1.17502	0.44254	-0.9308599999999999	3273278.0	1776544936.878991	0.0	1.0	-1.0	-1.0	-1.0	-1.0	-1.0	-1.0	-1.0	-1.0	0.0	marker	peace	Peace	22	0418
-67966.73999999999	-54969.119999999995	-104235.97499999999	-18293.489999999998	0.0	0.0	0.0	0.0	0.0	0.0	0.0	0.0	0.0	0.0	0.0	0.0	0.0	0.0	146.0	0.0	0.05114733	-0.08032206	1.019345535	1.17502	0.44254	-0.9308599999999999	3273279.0	1776544936.879006	0.0	1.0	-1.0	-1.0	-1.0	-1.0	-1.0	-1.0	-1.0	-1.0	0.0	marker	peace	Peace	22	0418
-68033.06999999999	-54978.435	-104295.69	-18306.09	0.0	0.0	0.0	0.0	0.0	0.0	0.0	0.0	0.0	0.0	0.0	0.0	0.0	0.0	146.0	0.0	0.05676255	-0.079162395	1.015195155	1.9990599999999998	0.763	-0.30519999999999997	3273280.0	1776544936.885378	0.0	1.0	-1.0	-1.0	-1.0	-1.0	-1.0	-1.0	-1.0	-1.0	0.0	marker	peace	Peace	22	0418
-68053.36499999999	-54973.575	-104332.36499999999	-18357.434999999998	0.0	0.0	0.0	0.0	0.0	0.0	0.0	0.0	0.0	0.0	0.0	0.0	0.0	0.0	146.0	0.0	0.05676255	-0.079162395	1.015195155	1.9990599999999998	0.763	-0.30519999999999997	3273281.0	1776544936.885392	0.0	1.0	-1.0	-1.0	-1.0	-1.0	-1.0	-1.0	-1.0	-1.0	0.0	marker	peace	Peace	22	0418
-68058.18	-54964.619999999995	-104328.26999999999	-18389.925	0.0	0.0	0.0	0.0	0.0	0.0	0.0	0.0	0.0	0.0	0.0	0.0	0.0	0.0	146.0	0.0	0.05676255	-0.079162395	1.015195155	1.9990599999999998	0.763	-0.30519999999999997	3273282.0	1776544936.888249	0.0	1.0	-1.0	-1.0	-1.0	-1.0	-1.0	-1.0	-1.0	-1.0	0.0	marker	peace	Peace	22	0418
-68025.78	-54944.685	-104257.39499999999	-18367.38	0.0	0.0	0.0	0.0	0.0	0.0	0.0	0.0	0.0	0.0	0.0	0.0	0.0	0.0	146.0	0.0	0.05676255	-0.079162395	1.015195155	1.9990599999999998	0.763	-0.30519999999999997	3273283.0	1776544936.888264	0.0	1.0	-1.0	-1.0	-1.0	-1.0	-1.0	-1.0	-1.0	-1.0	0.0	marker	peace	Peace	22	0418
-68042.88	-54930.329999999994	-104280.25499999999	-18343.125	0.0	0.0	0.0	0.0	0.0	0.0	0.0	0.0	0.0	0.0	0.0	0.0	0.0	0.0	146.0	0.0	0.05676255	-0.079162395	1.015195155	1.9990599999999998	0.763	-0.30519999999999997	3273284.0	1776544936.891183	0.0	1.0	-1.0	-1.0	-1.0	-1.0	-1.0	-1.0	-1.0	-1.0	0.0	marker	peace	Peace	22	0418
-68030.28	-54931.275	-104293.845	-18319.274999999998	0.0	0.0	0.0	0.0	0.0	0.0	0.0	0.0	0.0	0.0	0.0	0.0	0.0	0.0	146.0	0.0	0.05676255	-0.079162395	1.015195155	1.9990599999999998	0.763	-0.30519999999999997	3273285.0	1776544936.891192	0.0	1.0	-1.0	-1.0	-1.0	-1.0	-1.0	-1.0	-1.0	-1.0	0.0	marker	peace	Peace	22	0418
-68011.605	-54938.07	-104277.15	-18350.145	0.0	0.0	0.0	0.0	0.0	0.0	0.0	0.0	0.0	0.0	0.0	0.0	0.0	0.0	146.0	0.0	0.05676255	-0.079162395	1.015195155	1.9990599999999998	0.763	-0.30519999999999997	3273286.0	1776544936.897316	0.0	1.0	-1.0	-1.0	-1.0	-1.0	-1.0	-1.0	-1.0	-1.0	0.0	marker	peace	Peace	22	0418
-68049.675	-54949.409999999996	-104301.495	-18365.445	0.0	0.0	0.0	0.0	0.0	0.0	0.0	0.0	0.0	0.0	0.0	0.0	0.0	0.0	146.0	0.0	0.05676255	-0.079162395	1.015195155	1.9990599999999998	0.763	-0.30519999999999997	3273287.0	1776544936.897331	0.0	1.0	-1.0	-1.0	-1.0	-1.0	-1.0	-1.0	-1.0	-1.0	0.0	marker	peace	Peace	22	0418
-68015.11499999999	-54956.43	-104237.14499999999	-18336.735	0.0	0.0	0.0	0.0	0.0	0.0	0.0	0.0	0.0	0.0	0.0	0.0	0.0	0.0	146.0	0.0	0.05676255	-0.079162395	1.015195155	1.9990599999999998	0.763	-0.30519999999999997	3273288.0	1776544936.899411	0.0	1.0	-1.0	-1.0	-1.0	-1.0	-1.0	-1.0	-1.0	-1.0	0.0	marker	peace	Peace	22	0418
-68018.48999999999	-54974.07	-104256.765	-18337.995	0.0	0.0	0.0	0.0	0.0	0.0	0.0	0.0	0.0	0.0	0.0	0.0	0.0	0.0	146.0	0.0	0.05676255	-0.079162395	1.015195155	1.9990599999999998	0.763	-0.30519999999999997	3273289.0	1776544936.899437	0.0	1.0	-1.0	-1.0	-1.0	-1.0	-1.0	-1.0	-1.0	-1.0	0.0	marker	peace	Peace	22	0418
-68058.63	-54993.329999999994	-104330.655	-18382.59	0.0	0.0	0.0	0.0	0.0	0.0	0.0	0.0	0.0	0.0	0.0	0.0	0.0	0.0	146.0	0.0	0.059753265	-0.08349588	1.01305893	4.7306	1.05294	-0.47306	3273290.0	1776544936.906536	0.0	1.0	-1.0	-1.0	-1.0	-1.0	-1.0	-1.0	-1.0	-1.0	0.0	marker	peace	Peace	22	0418
-67931.145	-54989.729999999996	-104239.485	-18298.98	0.0	0.0	0.0	0.0	0.0	0.0	0.0	0.0	0.0	0.0	0.0	0.0	0.0	0.0	146.0	0.0	0.059753265	-0.08349588	1.01305893	4.7306	1.05294	-0.47306	3273291.0	1776544936.906554	0.0	1.0	-1.0	-1.0	-1.0	-1.0	-1.0	-1.0	-1.0	-1.0	0.0	marker	peace	Peace	22	0418
-67990.995	-54987.615	-104289.65999999999	-18329.67	0.0	0.0	0.0	0.0	0.0	0.0	0.0	0.0	0.0	0.0	0.0	0.0	0.0	0.0	146.0	0.0	0.059753265	-0.08349588	1.01305893	4.7306	1.05294	-0.47306	3273292.0	1776544936.906927	0.0	1.0	-1.0	-1.0	-1.0	-1.0	-1.0	-1.0	-1.0	-1.0	0.0	marker	peace	Peace	22	0418
-67986.36	-54978.704999999994	-104307.075	-18323.055	0.0	0.0	0.0	0.0	0.0	0.0	0.0	0.0	0.0	0.0	0.0	0.0	0.0	0.0	146.0	0.0	0.059753265	-0.08349588	1.01305893	4.7306	1.05294	-0.47306	3273293.0	1776544936.90695	0.0	1.0	-1.0	-1.0	-1.0	-1.0	-1.0	-1.0	-1.0	-1.0	0.0	marker	peace	Peace	22	0418
-67988.52	-54979.604999999996	-104284.305	-18330.344999999998	0.0	0.0	0.0	0.0	0.0	0.0	0.0	0.0	0.0	0.0	0.0	0.0	0.0	0.0	146.0	0.0	0.059753265	-0.08349588	1.01305893	4.7306	1.05294	-0.47306	3273294.0	1776544936.915264	0.0	1.0	-1.0	-1.0	-1.0	-1.0	-1.0	-1.0	-1.0	-1.0	0.0	marker	peace	Peace	22	0418
-68140.305	-54991.755	-104357.15999999999	-18409.094999999998	0.0	0.0	0.0	0.0	0.0	0.0	0.0	0.0	0.0	0.0	0.0	0.0	0.0	0.0	146.0	0.0	0.059753265	-0.08349588	1.01305893	4.7306	1.05294	-0.47306	3273295.0	1776544936.915287	0.0	1.0	-1.0	-1.0	-1.0	-1.0	-1.0	-1.0	-1.0	-1.0	0.0	marker	peace	Peace	22	0418
-68053.545	-54992.43	-104318.81999999999	-18397.62	0.0	0.0	0.0	0.0	0.0	0.0	0.0	0.0	0.0	0.0	0.0	0.0	0.0	0.0	146.0	0.0	0.059753265	-0.08349588	1.01305893	4.7306	1.05294	-0.47306	3273296.0	1776544936.915589	0.0	1.0	-1.0	-1.0	-1.0	-1.0	-1.0	-1.0	-1.0	-1.0	0.0	marker	peace	Peace	22	0418
-68043.51	-54988.829999999994	-104338.39499999999	-18413.415	0.0	0.0	0.0	0.0	0.0	0.0	0.0	0.0	0.0	0.0	0.0	0.0	0.0	0.0	146.0	0.0	0.059753265	-0.08349588	1.01305893	4.7306	1.05294	-0.47306	3273297.0	1776544936.915603	0.0	1.0	-1.0	-1.0	-1.0	-1.0	-1.0	-1.0	-1.0	-1.0	0.0	marker	peace	Peace	22	0418
-68042.79	-54975.78	-104304.915	-18384.704999999998	0.0	0.0	0.0	0.0	0.0	0.0	0.0	0.0	0.0	0.0	0.0	0.0	0.0	0.0	146.0	0.0	0.059753265	-0.08349588	1.01305893	4.7306	1.05294	-0.47306	3273298.0	1776544936.921962	0.0	1.0	-1.0	-1.0	-1.0	-1.0	-1.0	-1.0	-1.0	-1.0	0.0	marker	peace	Peace	22	0418
-68003.91	-54967.95	-104251.995	-18321.344999999998	0.0	0.0	0.0	0.0	0.0	0.0	0.0	0.0	0.0	0.0	0.0	0.0	0.0	0.0	146.0	0.0	0.059753265	-0.08349588	1.01305893	4.7306	1.05294	-0.47306	3273299.0	1776544936.921977	0.0	1.0	-1.0	-1.0	-1.0	-1.0	-1.0	-1.0	-1.0	-1.0	0.0	marker	peace	Peace	22	0418
-68024.06999999999	-54965.115	-104299.69499999999	-18342.809999999998	0.0	0.0	0.0	0.0	0.0	0.0	0.0	0.0	0.0	0.0	0.0	0.0	0.0	0.0	146.0	0.0	0.0585936	-0.08471658	1.0100071800000001	4.2270199999999996	1.70912	-1.0682	3273300.0	1776544936.92289	0.0	1.0	-1.0	-1.0	-1.0	-1.0	-1.0	-1.0	-1.0	-1.0	0.0	marker	peace	Peace	22	0418
-67965.03	-54957.195	-104249.61	-18304.965	0.0	0.0	0.0	0.0	0.0	0.0	0.0	0.0	0.0	0.0	0.0	0.0	0.0	0.0	146.0	0.0	0.0585936	-0.08471658	1.0100071800000001	4.2270199999999996	1.70912	-1.0682	3273301.0	1776544936.922904	0.0	1.0	-1.0	-1.0	-1.0	-1.0	-1.0	-1.0	-1.0	-1.0	0.0	marker	peace	Peace	22	0418
-67933.755	-54957.42	-104212.08	-18291.465	0.0	0.0	0.0	0.0	0.0	0.0	0.0	0.0	0.0	0.0	0.0	0.0	0.0	0.0	146.0	0.0	0.0585936	-0.08471658	1.0100071800000001	4.2270199999999996	1.70912	-1.0682	3273302.0	1776544936.92702	0.0	1.0	-1.0	-1.0	-1.0	-1.0	-1.0	-1.0	-1.0	-1.0	0.0	marker	peace	Peace	22	0418
-68040.18	-54961.604999999996	-104317.065	-18403.875	0.0	0.0	0.0	0.0	0.0	0.0	0.0	0.0	0.0	0.0	0.0	0.0	0.0	0.0	146.0	0.0	0.0585936	-0.08471658	1.0100071800000001	4.2270199999999996	1.70912	-1.0682	3273303.0	1776544936.927034	0.0	1.0	-1.0	-1.0	-1.0	-1.0	-1.0	-1.0	-1.0	-1.0	0.0	marker	peace	Peace	22	0418
-67995.98999999999	-54954.854999999996	-104221.75499999999	-18336.375	0.0	0.0	0.0	0.0	0.0	0.0	0.0	0.0	0.0	0.0	0.0	0.0	0.0	0.0	146.0	0.0	0.0585936	-0.08471658	1.0100071800000001	4.2270199999999996	1.70912	-1.0682	3273304.0	1776544936.931134	0.0	1.0	-1.0	-1.0	-1.0	-1.0	-1.0	-1.0	-1.0	-1.0	0.0	marker	peace	Peace	22	0418
-67960.755	-54958.68	-104174.50499999999	-18296.145	0.0	0.0	0.0	0.0	0.0	0.0	0.0	0.0	0.0	0.0	0.0	0.0	0.0	0.0	146.0	0.0	0.0585936	-0.08471658	1.0100071800000001	4.2270199999999996	1.70912	-1.0682	3273305.0	1776544936.931168	0.0	1.0	-1.0	-1.0	-1.0	-1.0	-1.0	-1.0	-1.0	-1.0	0.0	marker	peace	Peace	22	0418
-67989.95999999999	-54967.32	-104265.495	-18328.995	0.0	0.0	0.0	0.0	0.0	0.0	0.0	0.0	0.0	0.0	0.0	0.0	0.0	0.0	146.0	0.0	0.0585936	-0.08471658	1.0100071800000001	4.2270199999999996	1.70912	-1.0682	3273306.0	1776544936.935037	0.0	1.0	-1.0	-1.0	-1.0	-1.0	-1.0	-1.0	-1.0	-1.0	0.0	marker	peace	Peace	22	0418
-68120.86499999999	-54972.99	-104366.565	-18418.274999999998	0.0	0.0	0.0	0.0	0.0	0.0	0.0	0.0	0.0	0.0	0.0	0.0	0.0	0.0	146.0	0.0	0.0585936	-0.08471658	1.0100071800000001	4.2270199999999996	1.70912	-1.0682	3273307.0	1776544936.935064	0.0	1.0	-1.0	-1.0	-1.0	-1.0	-1.0	-1.0	-1.0	-1.0	0.0	marker	peace	Peace	22	0418
-68109.56999999999	-54963.9	-104306.265	-18409.094999999998	0.0	0.0	0.0	0.0	0.0	0.0	0.0	0.0	0.0	0.0	0.0	0.0	0.0	0.0	146.0	0.0	0.0585936	-0.08471658	1.0100071800000001	4.2270199999999996	1.70912	-1.0682	3273308.0	1776544936.938985	0.0	1.0	-1.0	-1.0	-1.0	-1.0	-1.0	-1.0	-1.0	-1.0	0.0	marker	peace	Peace	22	0418
-68013.72	-54944.82	-104219.955	-18353.43	0.0	0.0	0.0	0.0	0.0	0.0	0.0	0.0	0.0	0.0	0.0	0.0	0.0	0.0	146.0	0.0	0.0585936	-0.08471658	1.0100071800000001	4.2270199999999996	1.70912	-1.0682	3273309.0	1776544936.939008	0.0	1.0	-1.0	-1.0	-1.0	-1.0	-1.0	-1.0	-1.0	-1.0	0.0	marker	peace	Peace	22	0418
-68002.92	-54939.869999999995	-104208.75	-18303.704999999998	0.0	0.0	0.0	0.0	0.0	0.0	0.0	0.0	0.0	0.0	0.0	0.0	0.0	0.0	146.0	0.0	0.055541850000000004	-0.083190705	1.013852385	3.4640199999999997	1.25132	-0.73248	3273310.0	1776544936.942933	0.0	1.0	-1.0	-1.0	-1.0	-1.0	-1.0	-1.0	-1.0	-1.0	0.0	marker	peace	Peace	22	0418
-68022.405	-54948.735	-104245.065	-18308.61	0.0	0.0	0.0	0.0	0.0	0.0	0.0	0.0	0.0	0.0	0.0	0.0	0.0	0.0	146.0	0.0	0.055541850000000004	-0.083190705	1.013852385	3.4640199999999997	1.25132	-0.73248	3273311.0	1776544936.94295	0.0	1.0	-1.0	-1.0	-1.0	-1.0	-1.0	-1.0	-1.0	-1.0	0.0	marker	peace	Peace	22	0418
-67998.015	-54963.54	-104275.62	-18320.489999999998	0.0	0.0	0.0	0.0	0.0	0.0	0.0	0.0	0.0	0.0	0.0	0.0	0.0	0.0	146.0	0.0	0.055541850000000004	-0.083190705	1.013852385	3.4640199999999997	1.25132	-0.73248	3273312.0	1776544936.947002	0.0	1.0	-1.0	-1.0	-1.0	-1.0	-1.0	-1.0	-1.0	-1.0	0.0	marker	peace	Peace	22	0418
-68046.20999999999	-54969.795	-104311.17	-18376.469999999998	0.0	0.0	0.0	0.0	0.0	0.0	0.0	0.0	0.0	0.0	0.0	0.0	0.0	0.0	146.0	0.0	0.055541850000000004	-0.083190705	1.013852385	3.4640199999999997	1.25132	-0.73248	3273313.0	1776544936.947024	0.0	1.0	-1.0	-1.0	-1.0	-1.0	-1.0	-1.0	-1.0	-1.0	0.0	marker	peace	Peace	22	0418
-68044.14	-54968.445	-104296.635	-18377.46	0.0	0.0	0.0	0.0	0.0	0.0	0.0	0.0	0.0	0.0	0.0	0.0	0.0	0.0	146.0	0.0	0.055541850000000004	-0.083190705	1.013852385	3.4640199999999997	1.25132	-0.73248	3273314.0	1776544936.951064	0.0	1.0	-1.0	-1.0	-1.0	-1.0	-1.0	-1.0	-1.0	-1.0	0.0	marker	peace	Peace	22	0418
-68067.045	-54972.225	-104364.855	-18409.95	0.0	0.0	0.0	0.0	0.0	0.0	0.0	0.0	0.0	0.0	0.0	0.0	0.0	0.0	146.0	0.0	0.055541850000000004	-0.083190705	1.013852385	3.4640199999999997	1.25132	-0.73248	3273315.0	1776544936.951082	0.0	1.0	-1.0	-1.0	-1.0	-1.0	-1.0	-1.0	-1.0	-1.0	0.0	marker	peace	Peace	22	0418
-68011.155	-54963.494999999995	-104309.37	-18347.445	0.0	0.0	0.0	0.0	0.0	0.0	0.0	0.0	0.0	0.0	0.0	0.0	0.0	0.0	146.0	0.0	0.055541850000000004	-0.083190705	1.013852385	3.4640199999999997	1.25132	-0.73248	3273316.0	1776544936.955094	0.0	1.0	-1.0	-1.0	-1.0	-1.0	-1.0	-1.0	-1.0	-1.0	0.0	marker	peace	Peace	22	0418
-68039.91	-54962.145	-104325.75	-18362.88	0.0	0.0	0.0	0.0	0.0	0.0	0.0	0.0	0.0	0.0	0.0	0.0	0.0	0.0	146.0	0.0	0.055541850000000004	-0.083190705	1.013852385	3.4640199999999997	1.25132	-0.73248	3273317.0	1776544936.955127	0.0	1.0	-1.0	-1.0	-1.0	-1.0	-1.0	-1.0	-1.0	-1.0	0.0	marker	peace	Peace	22	0418
-68057.73	-54959.759999999995	-104347.53	-18401.489999999998	0.0	0.0	0.0	0.0	0.0	0.0	0.0	0.0	0.0	0.0	0.0	0.0	0.0	0.0	146.0	0.0	0.055541850000000004	-0.083190705	1.013852385	3.4640199999999997	1.25132	-0.73248	3273318.0	1776544936.960098	0.0	1.0	-1.0	-1.0	-1.0	-1.0	-1.0	-1.0	-1.0	-1.0	0.0	marker	peace	Peace	22	0418
-68020.69499999999	-54945.27	-104302.53	-18376.559999999998	0.0	0.0	0.0	0.0	0.0	0.0	0.0	0.0	0.0	0.0	0.0	0.0	0.0	0.0	146.0	0.0	0.055541850000000004	-0.083190705	1.013852385	3.4640199999999997	1.25132	-0.73248	3273319.0	1776544936.960113	0.0	1.0	-1.0	-1.0	-1.0	-1.0	-1.0	-1.0	-1.0	-1.0	0.0	marker	peace	Peace	22	0418
-68083.02	-54860.759999999995	-104351.355	-18389.475	0.0	0.0	0.0	0.0	0.0	0.0	0.0	0.0	0.0	0.0	0.0	0.0	0.0	0.0	146.0	0.0	0.050109735	-0.081725865	1.020077955	2.92992	0.28994	-0.9919	3273320.0	1776544936.966413	0.0	1.0	-1.0	-1.0	-1.0	-1.0	-1.0	-1.0	-1.0	-1.0	0.0	marker	peace	Peace	22	0418
-68072.355	-54823.365	-104357.34	-18403.38	0.0	0.0	0.0	0.0	0.0	0.0	0.0	0.0	0.0	0.0	0.0	0.0	0.0	0.0	146.0	0.0	0.050109735	-0.081725865	1.020077955	2.92992	0.28994	-0.9919	3273321.0	1776544936.966441	0.0	1.0	-1.0	-1.0	-1.0	-1.0	-1.0	-1.0	-1.0	-1.0	0.0	marker	peace	Peace	22	0418
-68036.04	-54821.744999999995	-104314.275	-18381.015	0.0	0.0	0.0	0.0	0.0	0.0	0.0	0.0	0.0	0.0	0.0	0.0	0.0	0.0	146.0	0.0	0.050109735	-0.081725865	1.020077955	2.92992	0.28994	-0.9919	3273322.0	1776544936.967074	0.0	1.0	-1.0	-1.0	-1.0	-1.0	-1.0	-1.0	-1.0	-1.0	0.0	marker	peace	Peace	22	0418
-67998.42	-54811.395	-104276.25	-18346.41	0.0	0.0	0.0	0.0	0.0	0.0	0.0	0.0	0.0	0.0	0.0	0.0	0.0	0.0	146.0	0.0	0.050109735	-0.081725865	1.020077955	2.92992	0.28994	-0.9919	3273323.0	1776544936.967097	0.0	1.0	-1.0	-1.0	-1.0	-1.0	-1.0	-1.0	-1.0	-1.0	0.0	marker	peace	Peace	22	0418
-68023.755	-54806.445	-104293.75499999999	-18354.6	0.0	0.0	0.0	0.0	0.0	0.0	0.0	0.0	0.0	0.0	0.0	0.0	0.0	0.0	146.0	0.0	0.050109735	-0.081725865	1.020077955	2.92992	0.28994	-0.9919	3273324.0	1776544936.971043	0.0	1.0	-1.0	-1.0	-1.0	-1.0	-1.0	-1.0	-1.0	-1.0	0.0	marker	peace	Peace	22	0418
-68095.935	-54798.884999999995	-104322.105	-18390.285	0.0	0.0	0.0	0.0	0.0	0.0	0.0	0.0	0.0	0.0	0.0	0.0	0.0	0.0	146.0	0.0	0.050109735	-0.081725865	1.020077955	2.92992	0.28994	-0.9919	3273325.0	1776544936.97107	0.0	1.0	-1.0	-1.0	-1.0	-1.0	-1.0	-1.0	-1.0	-1.0	0.0	marker	peace	Peace	22	0418
-68085.315	-54791.82	-104315.355	-18384.165	0.0	0.0	0.0	0.0	0.0	0.0	0.0	0.0	0.0	0.0	0.0	0.0	0.0	0.0	146.0	0.0	0.050109735	-0.081725865	1.020077955	2.92992	0.28994	-0.9919	3273326.0	1776544936.975143	0.0	1.0	-1.0	-1.0	-1.0	-1.0	-1.0	-1.0	-1.0	-1.0	0.0	marker	peace	Peace	22	0418
-68016.87	-54785.564999999995	-104288.67	-18353.204999999998	0.0	0.0	0.0	0.0	0.0	0.0	0.0	0.0	0.0	0.0	0.0	0.0	0.0	0.0	146.0	0.0	0.050109735	-0.081725865	1.020077955	2.92992	0.28994	-0.9919	3273327.0	1776544936.975159	0.0	1.0	-1.0	-1.0	-1.0	-1.0	-1.0	-1.0	-1.0	-1.0	0.0	marker	peace	Peace	22	0418
-67987.98	-54785.204999999994	-104255.055	-18327.105	0.0	0.0	0.0	0.0	0.0	0.0	0.0	0.0	0.0	0.0	0.0	0.0	0.0	0.0	146.0	0.0	0.050109735	-0.081725865	1.020077955	2.92992	0.28994	-0.9919	3273328.0	1776544936.979166	0.0	1.0	-1.0	-1.0	-1.0	-1.0	-1.0	-1.0	-1.0	-1.0	0.0	marker	peace	Peace	22	0418
-68020.83	-54795.465	-104266.8	-18343.215	0.0	0.0	0.0	0.0	0.0	0.0	0.0	0.0	0.0	0.0	0.0	0.0	0.0	0.0	146.0	0.0	0.050109735	-0.081725865	1.020077955	2.92992	0.28994	-0.9919	3273329.0	1776544936.979193	0.0	1.0	-1.0	-1.0	-1.0	-1.0	-1.0	-1.0	-1.0	-1.0	0.0	marker	peace	Peace	22	0418
-68020.47	-54811.575	-104264.50499999999	-18333.63	0.0	0.0	0.0	0.0	0.0	0.0	0.0	0.0	0.0	0.0	0.0	0.0	0.0	0.0	146.0	0.0	0.053283555	-0.080383095	1.020200025	3.2045999999999997	-0.09156	-0.77826	3273330.0	1776544936.983156	0.0	1.0	-1.0	-1.0	-1.0	-1.0	-1.0	-1.0	-1.0	-1.0	0.0	marker	peace	Peace	22	0418
-67985.64	-54812.744999999995	-104241.78	-18309.239999999998	0.0	0.0	0.0	0.0	0.0	0.0	0.0	0.0	0.0	0.0	0.0	0.0	0.0	0.0	146.0	0.0	0.053283555	-0.080383095	1.020200025	3.2045999999999997	-0.09156	-0.77826	3273331.0	1776544936.983189	0.0	1.0	-1.0	-1.0	-1.0	-1.0	-1.0	-1.0	-1.0	-1.0	0.0	marker	peace	Peace	22	0418
-67937.715	-54817.515	-104205.23999999999	-18286.065	0.0	0.0	0.0	0.0	0.0	0.0	0.0	0.0	0.0	0.0	0.0	0.0	0.0	0.0	146.0	0.0	0.053283555	-0.080383095	1.020200025	3.2045999999999997	-0.09156	-0.77826	3273332.0	1776544936.990525	0.0	1.0	-1.0	-1.0	-1.0	-1.0	-1.0	-1.0	-1.0	-1.0	0.0	marker	peace	Peace	22	0418
-68035.31999999999	-54826.064999999995	-104273.50499999999	-18341.864999999998	0.0	0.0	0.0	0.0	0.0	0.0	0.0	0.0	0.0	0.0	0.0	0.0	0.0	0.0	146.0	0.0	0.053283555	-0.080383095	1.020200025	3.2045999999999997	-0.09156	-0.77826	3273333.0	1776544936.99054	0.0	1.0	-1.0	-1.0	-1.0	-1.0	-1.0	-1.0	-1.0	-1.0	0.0	marker	peace	Peace	22	0418
-68102.64	-54813.689999999995	-104314.59	-18397.17	0.0	0.0	0.0	0.0	0.0	0.0	0.0	0.0	0.0	0.0	0.0	0.0	0.0	0.0	146.0	0.0	0.053283555	-0.080383095	1.020200025	3.2045999999999997	-0.09156	-0.77826	3273334.0	1776544936.993521	0.0	1.0	-1.0	-1.0	-1.0	-1.0	-1.0	-1.0	-1.0	-1.0	0.0	marker	peace	Peace	22	0418
-68060.43	-54799.604999999996	-104295.19499999999	-18386.19	0.0	0.0	0.0	0.0	0.0	0.0	0.0	0.0	0.0	0.0	0.0	0.0	0.0	0.0	146.0	0.0	0.053283555	-0.080383095	1.020200025	3.2045999999999997	-0.09156	-0.77826	3273335.0	1776544936.993534	0.0	1.0	-1.0	-1.0	-1.0	-1.0	-1.0	-1.0	-1.0	-1.0	0.0	marker	peace	Peace	22	0418
-68042.295	-54800.369999999995	-104318.595	-18406.125	0.0	0.0	0.0	0.0	0.0	0.0	0.0	0.0	0.0	0.0	0.0	0.0	0.0	0.0	146.0	0.0	0.053283555	-0.080383095	1.020200025	3.2045999999999997	-0.09156	-0.77826	3273336.0	1776544936.996764	0.0	1.0	-1.0	-1.0	-1.0	-1.0	-1.0	-1.0	-1.0	-1.0	0.0	marker	peace	Peace	22	0418
-68047.155	-54814.14	-104354.055	-18438.255	0.0	0.0	0.0	0.0	0.0	0.0	0.0	0.0	0.0	0.0	0.0	0.0	0.0	0.0	146.0	0.0	0.053283555	-0.080383095	1.020200025	3.2045999999999997	-0.09156	-0.77826	3273337.0	1776544936.996786	0.0	1.0	-1.0	-1.0	-1.0	-1.0	-1.0	-1.0	-1.0	-1.0	0.0	marker	peace	Peace	22	0418
-68030.81999999999	-54813.735	-104304.87	-18392.04	0.0	0.0	0.0	0.0	0.0	0.0	0.0	0.0	0.0	0.0	0.0	0.0	0.0	0.0	146.0	0.0	0.053283555	-0.080383095	1.020200025	3.2045999999999997	-0.09156	-0.77826	3273338.0	1776544936.999833	0.0	1.0	-1.0	-1.0	-1.0	-1.0	-1.0	-1.0	-1.0	-1.0	0.0	marker	peace	Peace	22	0418
-67991.13	-54809.549999999996	-104223.87	-18318.105	0.0	0.0	0.0	0.0	0.0	0.0	0.0	0.0	0.0	0.0	0.0	0.0	0.0	0.0	146.0	0.0	0.053283555	-0.080383095	1.020200025	3.2045999999999997	-0.09156	-0.77826	3273339.0	1776544936.999855	0.0	1.0	-1.0	-1.0	-1.0	-1.0	-1.0	-1.0	-1.0	-1.0	0.0	marker	peace	Peace	22	0418
-68043.78	-54816.615	-104284.17	-18320.13	0.0	0.0	0.0	0.0	0.0	0.0	0.0	0.0	0.0	0.0	0.0	0.0	0.0	0.0	146.0	0.0	0.056091165	-0.08074930500000001	1.0173313800000001	3.29616	-0.25942	-0.50358	3273340.0	1776544937.003158	0.0	1.0	-1.0	-1.0	-1.0	-1.0	-1.0	-1.0	-1.0	-1.0	0.0	marker	peace	Peace	22	0418
-67995.94499999999	-54814.32	-104287.905	-18282.285	0.0	0.0	0.0	0.0	0.0	0.0	0.0	0.0	0.0	0.0	0.0	0.0	0.0	0.0	146.0	0.0	0.056091165	-0.08074930500000001	1.0173313800000001	3.29616	-0.25942	-0.50358	3273341.0	1776544937.003183	0.0	1.0	-1.0	-1.0	-1.0	-1.0	-1.0	-1.0	-1.0	-1.0	0.0	marker	peace	Peace	22	0418
-67916.43	-54800.505	-104175.315	-18232.965	0.0	0.0	0.0	0.0	0.0	0.0	0.0	0.0	0.0	0.0	0.0	0.0	0.0	0.0	146.0	0.0	0.056091165	-0.08074930500000001	1.0173313800000001	3.29616	-0.25942	-0.50358	3273342.0	1776544937.007086	0.0	1.0	-1.0	-1.0	-1.0	-1.0	-1.0	-1.0	-1.0	-1.0	0.0	marker	peace	Peace	22	0418
-67979.655	-54809.055	-104226.20999999999	-18301.725	0.0	0.0	0.0	0.0	0.0	0.0	0.0	0.0	0.0	0.0	0.0	0.0	0.0	0.0	146.0	0.0	0.056091165	-0.08074930500000001	1.0173313800000001	3.29616	-0.25942	-0.50358	3273343.0	1776544937.0071	0.0	1.0	-1.0	-1.0	-1.0	-1.0	-1.0	-1.0	-1.0	-1.0	0.0	marker	peace	Peace	22	0418
-68055.93	-54822.195	-104343.165	-18398.07	0.0	0.0	0.0	0.0	0.0	0.0	0.0	0.0	0.0	0.0	0.0	0.0	0.0	0.0	146.0	0.0	0.056091165	-0.08074930500000001	1.0173313800000001	3.29616	-0.25942	-0.50358	3273344.0	1776544937.011135	0.0	1.0	-1.0	-1.0	-1.0	-1.0	-1.0	-1.0	-1.0	-1.0	0.0	marker	peace	Peace	22	0418
-68127.3	-54827.1	-104399.955	-18452.565	0.0	0.0	0.0	0.0	0.0	0.0	0.0	0.0	0.0	0.0	0.0	0.0	0.0	0.0	146.0	0.0	0.056091165	-0.08074930500000001	1.0173313800000001	3.29616	-0.25942	-0.50358	3273345.0	1776544937.011147	0.0	1.0	-1.0	-1.0	-1.0	-1.0	-1.0	-1.0	-1.0	-1.0	0.0	marker	peace	Peace	22	0418
-68010.795	-54828.72	-104293.485	-18348.21	0.0	0.0	0.0	0.0	0.0	0.0	0.0	0.0	0.0	0.0	0.0	0.0	0.0	0.0	146.0	0.0	0.056091165	-0.08074930500000001	1.0173313800000001	3.29616	-0.25942	-0.50358	3273346.0	1776544937.015202	0.0	1.0	-1.0	-1.0	-1.0	-1.0	-1.0	-1.0	-1.0	-1.0	0.0	marker	peace	Peace	22	0418
-68001.48	-54838.079999999994	-104296.995	-18355.86	0.0	0.0	0.0	0.0	0.0	0.0	0.0	0.0	0.0	0.0	0.0	0.0	0.0	0.0	146.0	0.0	0.056091165	-0.08074930500000001	1.0173313800000001	3.29616	-0.25942	-0.50358	3273347.0	1776544937.015214	0.0	1.0	-1.0	-1.0	-1.0	-1.0	-1.0	-1.0	-1.0	-1.0	0.0	marker	peace	Peace	22	0418
-68028.885	-54837.72	-104294.11499999999	-18378.27	0.0	0.0	0.0	0.0	0.0	0.0	0.0	0.0	0.0	0.0	0.0	0.0	0.0	0.0	146.0	0.0	0.056091165	-0.08074930500000001	1.0173313800000001	3.29616	-0.25942	-0.50358	3273348.0	1776544937.019296	0.0	1.0	-1.0	-1.0	-1.0	-1.0	-1.0	-1.0	-1.0	-1.0	0.0	marker	peace	Peace	22	0418
-68085.98999999999	-54835.064999999995	-104287.00499999999	-18382.364999999998	0.0	0.0	0.0	0.0	0.0	0.0	0.0	0.0	0.0	0.0	0.0	0.0	0.0	0.0	146.0	0.0	0.056091165	-0.08074930500000001	1.0173313800000001	3.29616	-0.25942	-0.50358	3273349.0	1776544937.019336	0.0	1.0	-1.0	-1.0	-1.0	-1.0	-1.0	-1.0	-1.0	-1.0	0.0	marker	peace	Peace	22	0418
-68075.37	-54826.829999999994	-104281.69499999999	-18386.64	0.0	0.0	0.0	0.0	0.0	0.0	0.0	0.0	0.0	0.0	0.0	0.0	0.0	0.0	146.0	0.0	0.05749497	-0.08374002	1.010800635	3.54032	0.39676	-1.2207999999999999	3273350.0	1776544937.027499	0.0	1.0	-1.0	-1.0	-1.0	-1.0	-1.0	-1.0	-1.0	-1.0	0.0	marker	peace	Peace	22	0418
-68051.745	-54819.09	-104264.50499999999	-18378.315	0.0	0.0	0.0	0.0	0.0	0.0	0.0	0.0	0.0	0.0	0.0	0.0	0.0	0.0	146.0	0.0	0.05749497	-0.08374002	1.010800635	3.54032	0.39676	-1.2207999999999999	3273351.0	1776544937.027514	0.0	1.0	-1.0	-1.0	-1.0	-1.0	-1.0	-1.0	-1.0	-1.0	0.0	marker	peace	Peace	22	0418
-68048.73	-54816.57	-104292.09	-18367.335	0.0	0.0	0.0	0.0	0.0	0.0	0.0	0.0	0.0	0.0	0.0	0.0	0.0	0.0	146.0	0.0	0.05749497	-0.08374002	1.010800635	3.54032	0.39676	-1.2207999999999999	3273352.0	1776544937.028181	0.0	1.0	-1.0	-1.0	-1.0	-1.0	-1.0	-1.0	-1.0	-1.0	0.0	marker	peace	Peace	22	0418
-68038.02	-54815.534999999996	-104342.58	-18367.11	0.0	0.0	0.0	0.0	0.0	0.0	0.0	0.0	0.0	0.0	0.0	0.0	0.0	0.0	146.0	0.0	0.05749497	-0.08374002	1.010800635	3.54032	0.39676	-1.2207999999999999	3273353.0	1776544937.028192	0.0	1.0	-1.0	-1.0	-1.0	-1.0	-1.0	-1.0	-1.0	-1.0	0.0	marker	peace	Peace	22	0418
-68003.81999999999	-54810.54	-104269.86	-18339.75	0.0	0.0	0.0	0.0	0.0	0.0	0.0	0.0	0.0	0.0	0.0	0.0	0.0	0.0	146.0	0.0	0.05749497	-0.08374002	1.010800635	3.54032	0.39676	-1.2207999999999999	3273354.0	1776544937.031262	0.0	1.0	-1.0	-1.0	-1.0	-1.0	-1.0	-1.0	-1.0	-1.0	0.0	marker	peace	Peace	22	0418
-68011.425	-54811.979999999996	-104261.355	-18374.219999999998	0.0	0.0	0.0	0.0	0.0	0.0	0.0	0.0	0.0	0.0	0.0	0.0	0.0	0.0	146.0	0.0	0.05749497	-0.08374002	1.010800635	3.54032	0.39676	-1.2207999999999999	3273355.0	1776544937.031278	0.0	1.0	-1.0	-1.0	-1.0	-1.0	-1.0	-1.0	-1.0	-1.0	0.0	marker	peace	Peace	22	0418
-67944.15	-54809.595	-104175.45	-18304.515	0.0	0.0	0.0	0.0	0.0	0.0	0.0	0.0	0.0	0.0	0.0	0.0	0.0	0.0	146.0	0.0	0.05749497	-0.08374002	1.010800635	3.54032	0.39676	-1.2207999999999999	3273356.0	1776544937.035384	0.0	1.0	-1.0	-1.0	-1.0	-1.0	-1.0	-1.0	-1.0	-1.0	0.0	marker	peace	Peace	22	0418
-67974.56999999999	-54808.47	-104245.425	-18315.63	0.0	0.0	0.0	0.0	0.0	0.0	0.0	0.0	0.0	0.0	0.0	0.0	0.0	0.0	146.0	0.0	0.05749497	-0.08374002	1.010800635	3.54032	0.39676	-1.2207999999999999	3273357.0	1776544937.035409	0.0	1.0	-1.0	-1.0	-1.0	-1.0	-1.0	-1.0	-1.0	-1.0	0.0	marker	peace	Peace	22	0418
-68033.79	-54807.39	-104329.75499999999	-18361.98	0.0	0.0	0.0	0.0	0.0	0.0	0.0	0.0	0.0	0.0	0.0	0.0	0.0	0.0	146.0	0.0	0.05749497	-0.08374002	1.010800635	3.54032	0.39676	-1.2207999999999999	3273358.0	1776544937.039392	0.0	1.0	-1.0	-1.0	-1.0	-1.0	-1.0	-1.0	-1.0	-1.0	0.0	marker	peace	Peace	22	0418
-68043.51	-54791.009999999995	-104331.015	-18362.835	0.0	0.0	0.0	0.0	0.0	0.0	0.0	0.0	0.0	0.0	0.0	0.0	0.0	0.0	146.0	0.0	0.05749497	-0.08374002	1.010800635	3.54032	0.39676	-1.2207999999999999	3273359.0	1776544937.039412	0.0	1.0	-1.0	-1.0	-1.0	-1.0	-1.0	-1.0	-1.0	-1.0	0.0	marker	peace	Peace	22	0418
-68059.08	-54774.225	-104316.12	-18392.535	0.0	0.0	0.0	0.0	0.0	0.0	0.0	0.0	0.0	0.0	0.0	0.0	0.0	0.0	146.0	0.0	0.058044285	-0.08483865	1.01025132	2.33478	0.6867	-0.9003399999999999	3273360.0	1776544937.043346	0.0	1.0	-1.0	-1.0	-1.0	-1.0	-1.0	-1.0	-1.0	-1.0	0.0	marker	peace	Peace	22	0418
-68002.875	-54756.405	-104260.14	-18356.399999999998	0.0	0.0	0.0	0.0	0.0	0.0	0.0	0.0	0.0	0.0	0.0	0.0	0.0	0.0	146.0	0.0	0.058044285	-0.08483865	1.01025132	2.33478	0.6867	-0.9003399999999999	3273361.0	1776544937.043358	0.0	1.0	-1.0	-1.0	-1.0	-1.0	-1.0	-1.0	-1.0	-1.0	0.0	marker	peace	Peace	22	0418
-68051.25	-54755.64	-104322.735	-18372.375	0.0	0.0	0.0	0.0	0.0	0.0	0.0	0.0	0.0	0.0	0.0	0.0	0.0	0.0	146.0	0.0	0.058044285	-0.08483865	1.01025132	2.33478	0.6867	-0.9003399999999999	3273362.0	1776544937.047366	0.0	1.0	-1.0	-1.0	-1.0	-1.0	-1.0	-1.0	-1.0	-1.0	0.0	marker	peace	Peace	22	0418
-68096.385	-54759.509999999995	-104334.25499999999	-18403.02	0.0	0.0	0.0	0.0	0.0	0.0	0.0	0.0	0.0	0.0	0.0	0.0	0.0	0.0	146.0	0.0	0.058044285	-0.08483865	1.01025132	2.33478	0.6867	-0.9003399999999999	3273363.0	1776544937.047397	0.0	1.0	-1.0	-1.0	-1.0	-1.0	-1.0	-1.0	-1.0	-1.0	0.0	marker	peace	Peace	22	0418
-67993.83	-54757.395	-104230.89	-18314.55	0.0	0.0	0.0	0.0	0.0	0.0	0.0	0.0	0.0	0.0	0.0	0.0	0.0	0.0	146.0	0.0	0.058044285	-0.08483865	1.01025132	2.33478	0.6867	-0.9003399999999999	3273364.0	1776544937.051317	0.0	1.0	-1.0	-1.0	-1.0	-1.0	-1.0	-1.0	-1.0	-1.0	0.0	marker	peace	Peace	22	0418
-67882.59	-54761.895	-104209.01999999999	-18268.829999999998	0.0	0.0	0.0	0.0	0.0	0.0	0.0	0.0	0.0	0.0	0.0	0.0	0.0	0.0	146.0	0.0	0.058044285	-0.08483865	1.01025132	2.33478	0.6867	-0.9003399999999999	3273365.0	1776544937.05133	0.0	1.0	-1.0	-1.0	-1.0	-1.0	-1.0	-1.0	-1.0	-1.0	0.0	marker	peace	Peace	22	0418
-68007.42	-54812.88	-104349.28499999999	-18397.26	0.0	0.0	0.0	0.0	0.0	0.0	0.0	0.0	0.0	0.0	0.0	0.0	0.0	0.0	146.0	0.0	0.058044285	-0.08483865	1.01025132	2.33478	0.6867	-0.9003399999999999	3273366.0	1776544937.056295	0.0	1.0	-1.0	-1.0	-1.0	-1.0	-1.0	-1.0	-1.0	-1.0	0.0	marker	peace	Peace	22	0418
-68021.73	-54821.07	-104305.23	-18355.274999999998	0.0	0.0	0.0	0.0	0.0	0.0	0.0	0.0	0.0	0.0	0.0	0.0	0.0	0.0	146.0	0.0	0.058044285	-0.08483865	1.01025132	2.33478	0.6867	-0.9003399999999999	3273367.0	1776544937.05631	0.0	1.0	-1.0	-1.0	-1.0	-1.0	-1.0	-1.0	-1.0	-1.0	0.0	marker	peace	Peace	22	0418
-68010.39	-54821.79	-104239.89	-18283.184999999998	0.0	0.0	0.0	0.0	0.0	0.0	0.0	0.0	0.0	0.0	0.0	0.0	0.0	0.0	146.0	0.0	0.058044285	-0.08483865	1.01025132	2.33478	0.6867	-0.9003399999999999	3273368.0	1776544937.059363	0.0	1.0	-1.0	-1.0	-1.0	-1.0	-1.0	-1.0	-1.0	-1.0	0.0	marker	peace	Peace	22	0418
-68075.91	-54820.53	-104313.105	-18374.67	0.0	0.0	0.0	0.0	0.0	0.0	0.0	0.0	0.0	0.0	0.0	0.0	0.0	0.0	146.0	0.0	0.058044285	-0.08483865	1.01025132	2.33478	0.6867	-0.9003399999999999	3273369.0	1776544937.059376	0.0	1.0	-1.0	-1.0	-1.0	-1.0	-1.0	-1.0	-1.0	-1.0	0.0	marker	peace	Peace	22	0418
-68035.36499999999	-54809.145	-104288.805	-18348.795	0.0	0.0	0.0	0.0	0.0	0.0	0.0	0.0	0.0	0.0	0.0	0.0	0.0	0.0	146.0	0.0	0.052062855	-0.080993445	1.016049645	3.03674	0.30519999999999997	-1.49548	3273370.0	1776544937.063452	0.0	1.0	-1.0	-1.0	-1.0	-1.0	-1.0	-1.0	-1.0	-1.0	0.0	marker	peace	Peace	22	0418
-68015.565	-54810.72	-104260.995	-18325.89	0.0	0.0	0.0	0.0	0.0	0.0	0.0	0.0	0.0	0.0	0.0	0.0	0.0	0.0	146.0	0.0	0.052062855	-0.080993445	1.016049645	3.03674	0.30519999999999997	-1.49548	3273371.0	1776544937.063478	0.0	1.0	-1.0	-1.0	-1.0	-1.0	-1.0	-1.0	-1.0	-1.0	0.0	marker	peace	Peace	22	0418
-68066.505	-54818.82	-104307.93	-18377.055	0.0	0.0	0.0	0.0	0.0	0.0	0.0	0.0	0.0	0.0	0.0	0.0	0.0	0.0	146.0	0.0	0.052062855	-0.080993445	1.016049645	3.03674	0.30519999999999997	-1.49548	3273372.0	1776544937.067514	0.0	1.0	-1.0	-1.0	-1.0	-1.0	-1.0	-1.0	-1.0	-1.0	0.0	marker	peace	Peace	22	0418
-68106.915	-54831.645	-104329.08	-18391.32	0.0	0.0	0.0	0.0	0.0	0.0	0.0	0.0	0.0	0.0	0.0	0.0	0.0	0.0	146.0	0.0	0.052062855	-0.080993445	1.016049645	3.03674	0.30519999999999997	-1.49548	3273373.0	1776544937.067536	0.0	1.0	-1.0	-1.0	-1.0	-1.0	-1.0	-1.0	-1.0	-1.0	0.0	marker	peace	Peace	22	0418
-68042.61	-54825.255	-104167.39499999999	-18351.225	0.0	0.0	0.0	0.0	0.0	0.0	0.0	0.0	0.0	0.0	0.0	0.0	0.0	0.0	146.0	0.0	0.052062855	-0.080993445	1.016049645	3.03674	0.30519999999999997	-1.49548	3273374.0	1776544937.07138	0.0	1.0	-1.0	-1.0	-1.0	-1.0	-1.0	-1.0	-1.0	-1.0	0.0	marker	peace	Peace	22	0418
-68023.62	-54829.799999999996	-104213.15999999999	-18323.55	0.0	0.0	0.0	0.0	0.0	0.0	0.0	0.0	0.0	0.0	0.0	0.0	0.0	0.0	146.0	0.0	0.052062855	-0.080993445	1.016049645	3.03674	0.30519999999999997	-1.49548	3273375.0	1776544937.071404	0.0	1.0	-1.0	-1.0	-1.0	-1.0	-1.0	-1.0	-1.0	-1.0	0.0	marker	peace	Peace	22	0418
-68050.62	-54833.354999999996	-104377.815	-18360.405	0.0	0.0	0.0	0.0	0.0	0.0	0.0	0.0	0.0	0.0	0.0	0.0	0.0	0.0	146.0	0.0	0.052062855	-0.080993445	1.016049645	3.03674	0.30519999999999997	-1.49548	3273376.0	1776544937.075596	0.0	1.0	-1.0	-1.0	-1.0	-1.0	-1.0	-1.0	-1.0	-1.0	0.0	marker	peace	Peace	22	0418
-68038.155	-54831.825	-104401.53	-18394.065	0.0	0.0	0.0	0.0	0.0	0.0	0.0	0.0	0.0	0.0	0.0	0.0	0.0	0.0	146.0	0.0	0.052062855	-0.080993445	1.016049645	3.03674	0.30519999999999997	-1.49548	3273377.0	1776544937.075611	0.0	1.0	-1.0	-1.0	-1.0	-1.0	-1.0	-1.0	-1.0	-1.0	0.0	marker	peace	Peace	22	0418
-68040.0	-54833.445	-104368.59	-18394.11	0.0	0.0	0.0	0.0	0.0	0.0	0.0	0.0	0.0	0.0	0.0	0.0	0.0	0.0	146.0	0.0	0.052062855	-0.080993445	1.016049645	3.03674	0.30519999999999997	-1.49548	3273378.0	1776544937.079639	0.0	1.0	-1.0	-1.0	-1.0	-1.0	-1.0	-1.0	-1.0	-1.0	0.0	marker	peace	Peace	22	0418
-68065.515	-54842.625	-104327.55	-18392.04	0.0	0.0	0.0	0.0	0.0	0.0	0.0	0.0	0.0	0.0	0.0	0.0	0.0	0.0	146.0	0.0	0.052062855	-0.080993445	1.016049645	3.03674	0.30519999999999997	-1.49548	3273379.0	1776544937.07966	0.0	1.0	-1.0	-1.0	-1.0	-1.0	-1.0	-1.0	-1.0	-1.0	0.0	marker	peace	Peace	22	0418
-68020.785	-54842.67	-104281.2	-18346.95	0.0	0.0	0.0	0.0	0.0	0.0	0.0	0.0	0.0	0.0	0.0	0.0	0.0	0.0	146.0	0.0	0.056335305	-0.07800273	1.01598861	2.38056	0.06104	-0.36624	3273380.0	1776544937.08364	0.0	1.0	-1.0	-1.0	-1.0	-1.0	-1.0	-1.0	-1.0	-1.0	0.0	marker	peace	Peace	22	0418
-67931.19	-54825.165	-104215.995	-18278.235	0.0	0.0	0.0	0.0	0.0	0.0	0.0	0.0	0.0	0.0	0.0	0.0	0.0	0.0	146.0	0.0	0.056335305	-0.07800273	1.01598861	2.38056	0.06104	-0.36624	3273381.0	1776544937.083664	0.0	1.0	-1.0	-1.0	-1.0	-1.0	-1.0	-1.0	-1.0	-1.0	0.0	marker	peace	Peace	22	0418
-67995.54	-54824.67	-104275.03499999999	-18331.469999999998	0.0	0.0	0.0	0.0	0.0	0.0	0.0	0.0	0.0	0.0	0.0	0.0	0.0	0.0	146.0	0.0	0.056335305	-0.07800273	1.01598861	2.38056	0.06104	-0.36624	3273382.0	1776544937.09001	0.0	1.0	-1.0	-1.0	-1.0	-1.0	-1.0	-1.0	-1.0	-1.0	0.0	marker	peace	Peace	22	0418
-68050.53	-54827.055	-104301.045	-18359.954999999998	0.0	0.0	0.0	0.0	0.0	0.0	0.0	0.0	0.0	0.0	0.0	0.0	0.0	0.0	146.0	0.0	0.056335305	-0.07800273	1.01598861	2.38056	0.06104	-0.36624	3273383.0	1776544937.090027	0.0	1.0	-1.0	-1.0	-1.0	-1.0	-1.0	-1.0	-1.0	-1.0	0.0	marker	peace	Peace	22	0418
-67968.54	-54821.159999999996	-104224.95	-18290.25	0.0	0.0	0.0	0.0	0.0	0.0	0.0	0.0	0.0	0.0	0.0	0.0	0.0	0.0	146.0	0.0	0.056335305	-0.07800273	1.01598861	2.38056	0.06104	-0.36624	3273384.0	1776544937.0929	0.0	1.0	-1.0	-1.0	-1.0	-1.0	-1.0	-1.0	-1.0	-1.0	0.0	marker	peace	Peace	22	0418
-67916.25	-54811.575	-104215.14	-18276.03	0.0	0.0	0.0	0.0	0.0	0.0	0.0	0.0	0.0	0.0	0.0	0.0	0.0	0.0	146.0	0.0	0.056335305	-0.07800273	1.01598861	2.38056	0.06104	-0.36624	3273385.0	1776544937.092913	0.0	1.0	-1.0	-1.0	-1.0	-1.0	-1.0	-1.0	-1.0	-1.0	0.0	marker	peace	Peace	22	0418
-68017.905	-54814.229999999996	-104291.685	-18361.755	0.0	0.0	0.0	0.0	0.0	0.0	0.0	0.0	0.0	0.0	0.0	0.0	0.0	0.0	146.0	0.0	0.056335305	-0.07800273	1.01598861	2.38056	0.06104	-0.36624	3273386.0	1776544937.096127	0.0	1.0	-1.0	-1.0	-1.0	-1.0	-1.0	-1.0	-1.0	-1.0	0.0	marker	peace	Peace	22	0418
-68090.22	-54816.479999999996	-104338.75499999999	-18413.64	0.0	0.0	0.0	0.0	0.0	0.0	0.0	0.0	0.0	0.0	0.0	0.0	0.0	0.0	146.0	0.0	0.056335305	-0.07800273	1.01598861	2.38056	0.06104	-0.36624	3273387.0	1776544937.096155	0.0	1.0	-1.0	-1.0	-1.0	-1.0	-1.0	-1.0	-1.0	-1.0	0.0	marker	peace	Peace	22	0418
-68028.20999999999	-54818.595	-104298.795	-18366.12	0.0	0.0	0.0	0.0	0.0	0.0	0.0	0.0	0.0	0.0	0.0	0.0	0.0	0.0	146.0	0.0	0.056335305	-0.07800273	1.01598861	2.38056	0.06104	-0.36624	3273388.0	1776544937.102115	0.0	1.0	-1.0	-1.0	-1.0	-1.0	-1.0	-1.0	-1.0	-1.0	0.0	marker	peace	Peace	22	0418
-68051.7	-54826.29	-104343.345	-18381.825	0.0	0.0	0.0	0.0	0.0	0.0	0.0	0.0	0.0	0.0	0.0	0.0	0.0	0.0	146.0	0.0	0.056335305	-0.07800273	1.01598861	2.38056	0.06104	-0.36624	3273389.0	1776544937.102139	0.0	1.0	-1.0	-1.0	-1.0	-1.0	-1.0	-1.0	-1.0	-1.0	0.0	marker	peace	Peace	22	0418
-68048.64	-54822.509999999995	-104340.78	-18396.719999999998	0.0	0.0	0.0	0.0	0.0	0.0	0.0	0.0	0.0	0.0	0.0	0.0	0.0	0.0	146.0	0.0	0.057800145000000004	-0.077331345	1.014828945	3.7386999999999997	0.44254	-0.6867	3273390.0	1776544937.103459	0.0	1.0	-1.0	-1.0	-1.0	-1.0	-1.0	-1.0	-1.0	-1.0	0.0	marker	peace	Peace	22	0418
-68013.18	-54808.11	-104294.655	-18360.315	0.0	0.0	0.0	0.0	0.0	0.0	0.0	0.0	0.0	0.0	0.0	0.0	0.0	0.0	146.0	0.0	0.057800145000000004	-0.077331345	1.014828945	3.7386999999999997	0.44254	-0.6867	3273391.0	1776544937.103479	0.0	1.0	-1.0	-1.0	-1.0	-1.0	-1.0	-1.0	-1.0	-1.0	0.0	marker	peace	Peace	22	0418
-68035.095	-54794.34	-104286.78	-18350.505	0.0	0.0	0.0	0.0	0.0	0.0	0.0	0.0	0.0	0.0	0.0	0.0	0.0	0.0	146.0	0.0	0.057800145000000004	-0.077331345	1.014828945	3.7386999999999997	0.44254	-0.6867	3273392.0	1776544937.107527	0.0	1.0	-1.0	-1.0	-1.0	-1.0	-1.0	-1.0	-1.0	-1.0	0.0	marker	peace	Peace	22	0418
-68082.12	-54719.055	-104327.595	-18392.94	0.0	0.0	0.0	0.0	0.0	0.0	0.0	0.0	0.0	0.0	0.0	0.0	0.0	0.0	146.0	0.0	0.057800145000000004	-0.077331345	1.014828945	3.7386999999999997	0.44254	-0.6867	3273393.0	1776544937.107546	0.0	1.0	-1.0	-1.0	-1.0	-1.0	-1.0	-1.0	-1.0	-1.0	0.0	marker	peace	Peace	22	0418
-68085.765	-54671.265	-104334.525	-18396.63	0.0	0.0	0.0	0.0	0.0	0.0	0.0	0.0	0.0	0.0	0.0	0.0	0.0	0.0	146.0	0.0	0.057800145000000004	-0.077331345	1.014828945	3.7386999999999997	0.44254	-0.6867	3273394.0	1776544937.111581	0.0	1.0	-1.0	-1.0	-1.0	-1.0	-1.0	-1.0	-1.0	-1.0	0.0	marker	peace	Peace	22	0418
-68045.355	-54671.715	-104308.065	-18367.875	0.0	0.0	0.0	0.0	0.0	0.0	0.0	0.0	0.0	0.0	0.0	0.0	0.0	0.0	146.0	0.0	0.057800145000000004	-0.077331345	1.014828945	3.7386999999999997	0.44254	-0.6867	3273395.0	1776544937.111598	0.0	1.0	-1.0	-1.0	-1.0	-1.0	-1.0	-1.0	-1.0	-1.0	0.0	marker	peace	Peace	22	0418
-67994.86499999999	-54681.659999999996	-104241.64499999999	-18308.79	0.0	0.0	0.0	0.0	0.0	0.0	0.0	0.0	0.0	0.0	0.0	0.0	0.0	0.0	146.0	0.0	0.057800145000000004	-0.077331345	1.014828945	3.7386999999999997	0.44254	-0.6867	3273396.0	1776544937.115572	0.0	1.0	-1.0	-1.0	-1.0	-1.0	-1.0	-1.0	-1.0	-1.0	0.0	marker	peace	Peace	22	0418
-67965.165	-54695.204999999994	-104199.165	-18268.469999999998	0.0	0.0	0.0	0.0	0.0	0.0	0.0	0.0	0.0	0.0	0.0	0.0	0.0	0.0	146.0	0.0	0.057800145000000004	-0.077331345	1.014828945	3.7386999999999997	0.44254	-0.6867	3273397.0	1776544937.115595	0.0	1.0	-1.0	-1.0	-1.0	-1.0	-1.0	-1.0	-1.0	-1.0	0.0	marker	peace	Peace	22	0418
-68138.955	-54717.03	-104381.595	-18448.245	0.0	0.0	0.0	0.0	0.0	0.0	0.0	0.0	0.0	0.0	0.0	0.0	0.0	0.0	146.0	0.0	0.057800145000000004	-0.077331345	1.014828945	3.7386999999999997	0.44254	-0.6867	3273398.0	1776544937.120071	0.0	1.0	-1.0	-1.0	-1.0	-1.0	-1.0	-1.0	-1.0	-1.0	0.0	marker	peace	Peace	22	0418
-68101.29	-54716.22	-104351.84999999999	-18410.04	0.0	0.0	0.0	0.0	0.0	0.0	0.0	0.0	0.0	0.0	0.0	0.0	0.0	0.0	146.0	0.0	0.057800145000000004	-0.077331345	1.014828945	3.7386999999999997	0.44254	-0.6867	3273399.0	1776544937.120111	0.0	1.0	-1.0	-1.0	-1.0	-1.0	-1.0	-1.0	-1.0	-1.0	0.0	marker	peace	Peace	22	0418
-67977.0	-54708.345	-104229.855	-18311.85	0.0	0.0	0.0	0.0	0.0	0.0	0.0	0.0	0.0	0.0	0.0	0.0	0.0	0.0	146.0	0.0	0.05407701	-0.080993445	1.011899265	2.53316	0.30519999999999997	-0.19838	3273400.0	1776544937.123606	0.0	1.0	-1.0	-1.0	-1.0	-1.0	-1.0	-1.0	-1.0	-1.0	0.0	marker	peace	Peace	22	0418
-67876.69499999999	-54692.189999999995	-104142.555	-18237.6	0.0	0.0	0.0	0.0	0.0	0.0	0.0	0.0	0.0	0.0	0.0	0.0	0.0	0.0	146.0	0.0	0.05407701	-0.080993445	1.011899265	2.53316	0.30519999999999997	-0.19838	3273401.0	1776544937.123621	0.0	1.0	-1.0	-1.0	-1.0	-1.0	-1.0	-1.0	-1.0	-1.0	0.0	marker	peace	Peace	22	0418
-68054.58	-54692.595	-104291.28	-18387.719999999998	0.0	0.0	0.0	0.0	0.0	0.0	0.0	0.0	0.0	0.0	0.0	0.0	0.0	0.0	146.0	0.0	0.05407701	-0.080993445	1.011899265	2.53316	0.30519999999999997	-0.19838	3273402.0	1776544937.127545	0.0	1.0	-1.0	-1.0	-1.0	-1.0	-1.0	-1.0	-1.0	-1.0	0.0	marker	peace	Peace	22	0418
-68104.575	-54697.905	-104321.06999999999	-18425.34	0.0	0.0	0.0	0.0	0.0	0.0	0.0	0.0	0.0	0.0	0.0	0.0	0.0	0.0	146.0	0.0	0.05407701	-0.080993445	1.011899265	2.53316	0.30519999999999997	-0.19838	3273403.0	1776544937.127558	0.0	1.0	-1.0	-1.0	-1.0	-1.0	-1.0	-1.0	-1.0	-1.0	0.0	marker	peace	Peace	22	0418
-68004.54	-54695.115	-104261.58	-18352.665	0.0	0.0	0.0	0.0	0.0	0.0	0.0	0.0	0.0	0.0	0.0	0.0	0.0	0.0	146.0	0.0	0.05407701	-0.080993445	1.011899265	2.53316	0.30519999999999997	-0.19838	3273404.0	1776544937.131616	0.0	1.0	-1.0	-1.0	-1.0	-1.0	-1.0	-1.0	-1.0	-1.0	0.0	marker	peace	Peace	22	0418
-67979.79	-54694.665	-104279.22	-18337.094999999998	0.0	0.0	0.0	0.0	0.0	0.0	0.0	0.0	0.0	0.0	0.0	0.0	0.0	0.0	146.0	0.0	0.05407701	-0.080993445	1.011899265	2.53316	0.30519999999999997	-0.19838	3273405.0	1776544937.13163	0.0	1.0	-1.0	-1.0	-1.0	-1.0	-1.0	-1.0	-1.0	-1.0	0.0	marker	peace	Peace	22	0418
-68105.655	-54699.525	-104296.545	-18357.704999999998	0.0	0.0	0.0	0.0	0.0	0.0	0.0	0.0	0.0	0.0	0.0	0.0	0.0	0.0	146.0	0.0	0.05407701	-0.080993445	1.011899265	2.53316	0.30519999999999997	-0.19838	3273406.0	1776544937.135668	0.0	1.0	-1.0	-1.0	-1.0	-1.0	-1.0	-1.0	-1.0	-1.0	0.0	marker	peace	Peace	22	0418
-68020.47	-54687.24	-104282.50499999999	-18374.489999999998	0.0	0.0	0.0	0.0	0.0	0.0	0.0	0.0	0.0	0.0	0.0	0.0	0.0	0.0	146.0	0.0	0.05407701	-0.080993445	1.011899265	2.53316	0.30519999999999997	-0.19838	3273407.0	1776544937.135686	0.0	1.0	-1.0	-1.0	-1.0	-1.0	-1.0	-1.0	-1.0	-1.0	0.0	marker	peace	Peace	22	0418
-68033.11499999999	-54686.43	-104313.69	-18394.155	0.0	0.0	0.0	0.0	0.0	0.0	0.0	0.0	0.0	0.0	0.0	0.0	0.0	0.0	146.0	0.0	0.05407701	-0.080993445	1.011899265	2.53316	0.30519999999999997	-0.19838	3273408.0	1776544937.139635	0.0	1.0	-1.0	-1.0	-1.0	-1.0	-1.0	-1.0	-1.0	-1.0	0.0	marker	peace	Peace	22	0418
-68096.79	-54699.57	-104380.29	-18400.094999999998	0.0	0.0	0.0	0.0	0.0	0.0	0.0	0.0	0.0	0.0	0.0	0.0	0.0	0.0	146.0	0.0	0.05407701	-0.080993445	1.011899265	2.53316	0.30519999999999997	-0.19838	3273409.0	1776544937.139651	0.0	1.0	-1.0	-1.0	-1.0	-1.0	-1.0	-1.0	-1.0	-1.0	0.0	marker	peace	Peace	22	0418
-68069.385	-54711.585	-104388.48	-18390.239999999998	0.0	0.0	0.0	0.0	0.0	0.0	0.0	0.0	0.0	0.0	0.0	0.0	0.0	0.0	146.0	0.0	0.05139147	-0.08258035500000001	1.01476791	3.52506	0.42728	-0.73248	3273410.0	1776544937.143584	0.0	1.0	-1.0	-1.0	-1.0	-1.0	-1.0	-1.0	-1.0	-1.0	0.0	marker	peace	Peace	22	0418
-68049.765	-54712.259999999995	-104327.055	-18376.829999999998	0.0	0.0	0.0	0.0	0.0	0.0	0.0	0.0	0.0	0.0	0.0	0.0	0.0	0.0	146.0	0.0	0.05139147	-0.08258035500000001	1.01476791	3.52506	0.42728	-0.73248	3273411.0	1776544937.143599	0.0	1.0	-1.0	-1.0	-1.0	-1.0	-1.0	-1.0	-1.0	-1.0	0.0	marker	peace	Peace	22	0418
-68024.79	-54719.729999999996	-104274.315	-18373.364999999998	0.0	0.0	0.0	0.0	0.0	0.0	0.0	0.0	0.0	0.0	0.0	0.0	0.0	0.0	146.0	0.0	0.05139147	-0.08258035500000001	1.01476791	3.52506	0.42728	-0.73248	3273412.0	1776544937.147691	0.0	1.0	-1.0	-1.0	-1.0	-1.0	-1.0	-1.0	-1.0	-1.0	0.0	marker	peace	Peace	22	0418
-68019.03	-54721.395	-104222.97	-18376.11	0.0	0.0	0.0	0.0	0.0	0.0	0.0	0.0	0.0	0.0	0.0	0.0	0.0	0.0	146.0	0.0	0.05139147	-0.08258035500000001	1.01476791	3.52506	0.42728	-0.73248	3273413.0	1776544937.147721	0.0	1.0	-1.0	-1.0	-1.0	-1.0	-1.0	-1.0	-1.0	-1.0	0.0	marker	peace	Peace	22	0418
-68017.31999999999	-54721.215	-104182.47	-18347.76	0.0	0.0	0.0	0.0	0.0	0.0	0.0	0.0	0.0	0.0	0.0	0.0	0.0	0.0	146.0	0.0	0.05139147	-0.08258035500000001	1.01476791	3.52506	0.42728	-0.73248	3273414.0	1776544937.152309	0.0	1.0	-1.0	-1.0	-1.0	-1.0	-1.0	-1.0	-1.0	-1.0	0.0	marker	peace	Peace	22	0418
-68031.315	-54718.604999999996	-104311.485	-18351.09	0.0	0.0	0.0	0.0	0.0	0.0	0.0	0.0	0.0	0.0	0.0	0.0	0.0	0.0	146.0	0.0	0.05139147	-0.08258035500000001	1.01476791	3.52506	0.42728	-0.73248	3273415.0	1776544937.152337	0.0	1.0	-1.0	-1.0	-1.0	-1.0	-1.0	-1.0	-1.0	-1.0	0.0	marker	peace	Peace	22	0418
-68046.61499999999	-54705.825	-104367.69	-18380.565	0.0	0.0	0.0	0.0	0.0	0.0	0.0	0.0	0.0	0.0	0.0	0.0	0.0	0.0	146.0	0.0	0.05139147	-0.08258035500000001	1.01476791	3.52506	0.42728	-0.73248	3273416.0	1776544937.155652	0.0	1.0	-1.0	-1.0	-1.0	-1.0	-1.0	-1.0	-1.0	-1.0	0.0	marker	peace	Peace	22	0418
-68015.06999999999	-54695.25	-104301.855	-18374.895	0.0	0.0	0.0	0.0	0.0	0.0	0.0	0.0	0.0	0.0	0.0	0.0	0.0	0.0	146.0	0.0	0.05139147	-0.08258035500000001	1.01476791	3.52506	0.42728	-0.73248	3273417.0	1776544937.155672	0.0	1.0	-1.0	-1.0	-1.0	-1.0	-1.0	-1.0	-1.0	-1.0	0.0	marker	peace	Peace	22	0418
-67953.465	-54694.755	-104317.69499999999	-18387.945	0.0	0.0	0.0	0.0	0.0	0.0	0.0	0.0	0.0	0.0	0.0	0.0	0.0	0.0	146.0	0.0	0.05139147	-0.08258035500000001	1.01476791	3.52506	0.42728	-0.73248	3273418.0	1776544937.163636	0.0	1.0	-1.0	-1.0	-1.0	-1.0	-1.0	-1.0	-1.0	-1.0	0.0	marker	peace	Peace	22	0418
-68012.505	-54699.479999999996	-104336.19	-18388.665	0.0	0.0	0.0	0.0	0.0	0.0	0.0	0.0	0.0	0.0	0.0	0.0	0.0	0.0	146.0	0.0	0.05139147	-0.08258035500000001	1.01476791	3.52506	0.42728	-0.73248	3273419.0	1776544937.163664	0.0	1.0	-1.0	-1.0	-1.0	-1.0	-1.0	-1.0	-1.0	-1.0	0.0	marker	peace	Peace	22	0418
-68106.465	-54716.04	-104302.62	-18376.515	0.0	0.0	0.0	0.0	0.0	0.0	0.0	0.0	0.0	0.0	0.0	0.0	0.0	0.0	146.0	0.0	0.0549315	-0.083556915	1.018857255	3.55558	-0.19838	0.42728	3273420.0	1776544937.163686	0.0	1.0	-1.0	-1.0	-1.0	-1.0	-1.0	-1.0	-1.0	-1.0	0.0	marker	peace	Peace	22	0418
-68050.08	-54721.079999999994	-104256.54	-18326.07	0.0	0.0	0.0	0.0	0.0	0.0	0.0	0.0	0.0	0.0	0.0	0.0	0.0	0.0	146.0	0.0	0.0549315	-0.083556915	1.018857255	3.55558	-0.19838	0.42728	3273421.0	1776544937.163695	0.0	1.0	-1.0	-1.0	-1.0	-1.0	-1.0	-1.0	-1.0	-1.0	0.0	marker	peace	Peace	22	0418
-68013.63	-54725.715	-104271.165	-18325.62	0.0	0.0	0.0	0.0	0.0	0.0	0.0	0.0	0.0	0.0	0.0	0.0	0.0	0.0	146.0	0.0	0.0549315	-0.083556915	1.018857255	3.55558	-0.19838	0.42728	3273422.0	1776544937.167837	0.0	1.0	-1.0	-1.0	-1.0	-1.0	-1.0	-1.0	-1.0	-1.0	0.0	marker	peace	Peace	22	0418
-67989.555	-54716.715	-104273.64	-18325.665	0.0	0.0	0.0	0.0	0.0	0.0	0.0	0.0	0.0	0.0	0.0	0.0	0.0	0.0	146.0	0.0	0.0549315	-0.083556915	1.018857255	3.55558	-0.19838	0.42728	3273423.0	1776544937.167864	0.0	1.0	-1.0	-1.0	-1.0	-1.0	-1.0	-1.0	-1.0	-1.0	0.0	marker	peace	Peace	22	0418
-67927.14	-54709.829999999994	-104248.305	-18297.63	0.0	0.0	0.0	0.0	0.0	0.0	0.0	0.0	0.0	0.0	0.0	0.0	0.0	0.0	146.0	0.0	0.0549315	-0.083556915	1.018857255	3.55558	-0.19838	0.42728	3273424.0	1776544937.171837	0.0	1.0	-1.0	-1.0	-1.0	-1.0	-1.0	-1.0	-1.0	-1.0	0.0	marker	peace	Peace	22	0418
-68032.08	-54713.07	-104337.405	-18405.809999999998	0.0	0.0	0.0	0.0	0.0	0.0	0.0	0.0	0.0	0.0	0.0	0.0	0.0	0.0	146.0	0.0	0.0549315	-0.083556915	1.018857255	3.55558	-0.19838	0.42728	3273425.0	1776544937.171867	0.0	1.0	-1.0	-1.0	-1.0	-1.0	-1.0	-1.0	-1.0	-1.0	0.0	marker	peace	Peace	22	0418
-68023.70999999999	-54707.939999999995	-104286.465	-18369.27	0.0	0.0	0.0	0.0	0.0	0.0	0.0	0.0	0.0	0.0	0.0	0.0	0.0	0.0	146.0	0.0	0.0549315	-0.083556915	1.018857255	3.55558	-0.19838	0.42728	3273426.0	1776544937.175784	0.0	1.0	-1.0	-1.0	-1.0	-1.0	-1.0	-1.0	-1.0	-1.0	0.0	marker	peace	Peace	22	0418
-68012.955	-54699.345	-104184.765	-18301.545	0.0	0.0	0.0	0.0	0.0	0.0	0.0	0.0	0.0	0.0	0.0	0.0	0.0	0.0	146.0	0.0	0.0549315	-0.083556915	1.018857255	3.55558	-0.19838	0.42728	3273427.0	1776544937.175802	0.0	1.0	-1.0	-1.0	-1.0	-1.0	-1.0	-1.0	-1.0	-1.0	0.0	marker	peace	Peace	22	0418
-68058.09	-54716.354999999996	-104272.065	-18355.14	0.0	0.0	0.0	0.0	0.0	0.0	0.0	0.0	0.0	0.0	0.0	0.0	0.0	0.0	146.0	0.0	0.0549315	-0.083556915	1.018857255	3.55558	-0.19838	0.42728	3273428.0	1776544937.179808	0.0	1.0	-1.0	-1.0	-1.0	-1.0	-1.0	-1.0	-1.0	-1.0	0.0	marker	peace	Peace	22	0418
-68045.895	-54735.255	-104335.56	-18350.055	0.0	0.0	0.0	0.0	0.0	0.0	0.0	0.0	0.0	0.0	0.0	0.0	0.0	0.0	146.0	0.0	0.0549315	-0.083556915	1.018857255	3.55558	-0.19838	0.42728	3273429.0	1776544937.179825	0.0	1.0	-1.0	-1.0	-1.0	-1.0	-1.0	-1.0	-1.0	-1.0	0.0	marker	peace	Peace	22	0418
-68021.325	-54738.72	-104316.075	-18342.945	0.0	0.0	0.0	0.0	0.0	0.0	0.0	0.0	0.0	0.0	0.0	0.0	0.0	0.0	146.0	0.0	0.05676255	-0.083678985	1.019101395	4.440659999999999	-0.47306	-0.77826	3273430.0	1776544937.184026	0.0	1.0	-1.0	-1.0	-1.0	-1.0	-1.0	-1.0	-1.0	-1.0	0.0	marker	peace	Peace	22	0418
-67986.135	-54737.82	-104300.64	-18386.19	0.0	0.0	0.0	0.0	0.0	0.0	0.0	0.0	0.0	0.0	0.0	0.0	0.0	0.0	146.0	0.0	0.05676255	-0.083678985	1.019101395	4.440659999999999	-0.47306	-0.77826	3273431.0	1776544937.184057	0.0	1.0	-1.0	-1.0	-1.0	-1.0	-1.0	-1.0	-1.0	-1.0	0.0	marker	peace	Peace	22	0418
-68041.575	-54737.954999999994	-104313.735	-18394.829999999998	0.0	0.0	0.0	0.0	0.0	0.0	0.0	0.0	0.0	0.0	0.0	0.0	0.0	0.0	146.0	0.0	0.05676255	-0.083678985	1.019101395	4.440659999999999	-0.47306	-0.77826	3273432.0	1776544937.187765	0.0	1.0	-1.0	-1.0	-1.0	-1.0	-1.0	-1.0	-1.0	-1.0	0.0	marker	peace	Peace	22	0418
-68091.435	-54732.915	-104317.965	-18376.965	0.0	0.0	0.0	0.0	0.0	0.0	0.0	0.0	0.0	0.0	0.0	0.0	0.0	0.0	146.0	0.0	0.05676255	-0.083678985	1.019101395	4.440659999999999	-0.47306	-0.77826	3273433.0	1776544937.187792	0.0	1.0	-1.0	-1.0	-1.0	-1.0	-1.0	-1.0	-1.0	-1.0	0.0	marker	peace	Peace	22	0418
-68105.83499999999	-54726.299999999996	-104328.495	-18393.255	0.0	0.0	0.0	0.0	0.0	0.0	0.0	0.0	0.0	0.0	0.0	0.0	0.0	0.0	146.0	0.0	0.05676255	-0.083678985	1.019101395	4.440659999999999	-0.47306	-0.77826	3273434.0	1776544937.192454	0.0	1.0	-1.0	-1.0	-1.0	-1.0	-1.0	-1.0	-1.0	-1.0	0.0	marker	peace	Peace	22	0418
-68047.69499999999	-54729.99	-104236.875	-18381.195	0.0	0.0	0.0	0.0	0.0	0.0	0.0	0.0	0.0	0.0	0.0	0.0	0.0	0.0	146.0	0.0	0.05676255	-0.083678985	1.019101395	4.440659999999999	-0.47306	-0.77826	3273435.0	1776544937.192468	0.0	1.0	-1.0	-1.0	-1.0	-1.0	-1.0	-1.0	-1.0	-1.0	0.0	marker	peace	Peace	22	0418
-68033.52	-54732.6	-104254.515	-18382.094999999998	0.0	0.0	0.0	0.0	0.0	0.0	0.0	0.0	0.0	0.0	0.0	0.0	0.0	0.0	146.0	0.0	0.05676255	-0.083678985	1.019101395	4.440659999999999	-0.47306	-0.77826	3273436.0	1776544937.198334	0.0	1.0	-1.0	-1.0	-1.0	-1.0	-1.0	-1.0	-1.0	-1.0	0.0	marker	peace	Peace	22	0418
-68032.755	-54729.314999999995	-104331.78	-18378.27	0.0	0.0	0.0	0.0	0.0	0.0	0.0	0.0	0.0	0.0	0.0	0.0	0.0	0.0	146.0	0.0	0.05676255	-0.083678985	1.019101395	4.440659999999999	-0.47306	-0.77826	3273437.0	1776544937.198358	0.0	1.0	-1.0	-1.0	-1.0	-1.0	-1.0	-1.0	-1.0	-1.0	0.0	marker	peace	Peace	22	0418
-68016.015	-54729.0	-104328.9	-18354.645	0.0	0.0	0.0	0.0	0.0	0.0	0.0	0.0	0.0	0.0	0.0	0.0	0.0	0.0	146.0	0.0	0.05676255	-0.083678985	1.019101395	4.440659999999999	-0.47306	-0.77826	3273438.0	1776544937.201328	0.0	1.0	-1.0	-1.0	-1.0	-1.0	-1.0	-1.0	-1.0	-1.0	0.0	marker	peace	Peace	22	0418
-67874.44499999999	-54713.25	-104151.78	-18192.329999999998	0.0	0.0	0.0	0.0	0.0	0.0	0.0	0.0	0.0	0.0	0.0	0.0	0.0	0.0	146.0	0.0	0.05676255	-0.083678985	1.019101395	4.440659999999999	-0.47306	-0.77826	3273439.0	1776544937.201345	0.0	1.0	-1.0	-1.0	-1.0	-1.0	-1.0	-1.0	-1.0	-1.0	0.0	marker	peace	Peace	22	0418
-67820.08499999999	-54693.81	-104113.305	-18177.3	0.0	0.0	0.0	0.0	0.0	0.0	0.0	0.0	0.0	0.0	0.0	0.0	0.0	0.0	146.0	0.0	0.063293295	-0.080871375	1.008603375	4.86794	0.6867	-0.01526	3273440.0	1776544937.204436	0.0	1.0	-1.0	-1.0	-1.0	-1.0	-1.0	-1.0	-1.0	-1.0	0.0	marker	peace	Peace	22	0418
-68077.845	-54701.1	-104350.76999999999	-18421.155	0.0	0.0	0.0	0.0	0.0	0.0	0.0	0.0	0.0	0.0	0.0	0.0	0.0	0.0	146.0	0.0	0.063293295	-0.080871375	1.008603375	4.86794	0.6867	-0.01526	3273441.0	1776544937.204462	0.0	1.0	-1.0	-1.0	-1.0	-1.0	-1.0	-1.0	-1.0	-1.0	0.0	marker	peace	Peace	22	0418
-68155.965	-54700.244999999995	-104416.69499999999	-18495.18	0.0	0.0	0.0	0.0	0.0	0.0	0.0	0.0	0.0	0.0	0.0	0.0	0.0	0.0	146.0	0.0	0.063293295	-0.080871375	1.008603375	4.86794	0.6867	-0.01526	3273442.0	1776544937.207767	0.0	1.0	-1.0	-1.0	-1.0	-1.0	-1.0	-1.0	-1.0	-1.0	0.0	marker	peace	Peace	22	0418
-68066.145	-54697.365	-104344.73999999999	-18425.34	0.0	0.0	0.0	0.0	0.0	0.0	0.0	0.0	0.0	0.0	0.0	0.0	0.0	0.0	146.0	0.0	0.063293295	-0.080871375	1.008603375	4.86794	0.6867	-0.01526	3273443.0	1776544937.207811	0.0	1.0	-1.0	-1.0	-1.0	-1.0	-1.0	-1.0	-1.0	-1.0	0.0	marker	peace	Peace	22	0418
-68056.065	-54695.204999999994	-104309.955	-18382.274999999998	0.0	0.0	0.0	0.0	0.0	0.0	0.0	0.0	0.0	0.0	0.0	0.0	0.0	0.0	146.0	0.0	0.063293295	-0.080871375	1.008603375	4.86794	0.6867	-0.01526	3273444.0	1776544937.211861	0.0	1.0	-1.0	-1.0	-1.0	-1.0	-1.0	-1.0	-1.0	-1.0	0.0	marker	peace	Peace	22	0418
-68075.81999999999	-54701.505	-104294.655	-18377.82	0.0	0.0	0.0	0.0	0.0	0.0	0.0	0.0	0.0	0.0	0.0	0.0	0.0	0.0	146.0	0.0	0.063293295	-0.080871375	1.008603375	4.86794	0.6867	-0.01526	3273445.0	1776544937.211872	0.0	1.0	-1.0	-1.0	-1.0	-1.0	-1.0	-1.0	-1.0	-1.0	0.0	marker	peace	Peace	22	0418
-68045.265	-54709.515	-104248.08	-18395.505	0.0	0.0	0.0	0.0	0.0	0.0	0.0	0.0	0.0	0.0	0.0	0.0	0.0	0.0	146.0	0.0	0.063293295	-0.080871375	1.008603375	4.86794	0.6867	-0.01526	3273446.0	1776544937.21676	0.0	1.0	-1.0	-1.0	-1.0	-1.0	-1.0	-1.0	-1.0	-1.0	0.0	marker	peace	Peace	22	0418
-68019.795	-54706.275	-104223.465	-18389.565	0.0	0.0	0.0	0.0	0.0	0.0	0.0	0.0	0.0	0.0	0.0	0.0	0.0	0.0	146.0	0.0	0.063293295	-0.080871375	1.008603375	4.86794	0.6867	-0.01526	3273447.0	1776544937.216791	0.0	1.0	-1.0	-1.0	-1.0	-1.0	-1.0	-1.0	-1.0	-1.0	0.0	marker	peace	Peace	22	0418
-68034.59999999999	-54698.67	-104259.015	-18357.93	0.0	0.0	0.0	0.0	0.0	0.0	0.0	0.0	0.0	0.0	0.0	0.0	0.0	0.0	146.0	0.0	0.063293295	-0.080871375	1.008603375	4.86794	0.6867	-0.01526	3273448.0	1776544937.219858	0.0	1.0	-1.0	-1.0	-1.0	-1.0	-1.0	-1.0	-1.0	-1.0	0.0	marker	peace	Peace	22	0418
-68032.17	-54691.829999999994	-104293.17	-18333.809999999998	0.0	0.0	0.0	0.0	0.0	0.0	0.0	0.0	0.0	0.0	0.0	0.0	0.0	0.0	146.0	0.0	0.063293295	-0.080871375	1.008603375	4.86794	0.6867	-0.01526	3273449.0	1776544937.219883	0.0	1.0	-1.0	-1.0	-1.0	-1.0	-1.0	-1.0	-1.0	-1.0	0.0	marker	peace	Peace	22	0418
-68043.87	-54682.695	-104346.94499999999	-18345.375	0.0	0.0	0.0	0.0	0.0	0.0	0.0	0.0	0.0	0.0	0.0	0.0	0.0	0.0	146.0	0.0	0.06457503	-0.08251932000000001	1.003598505	5.1121	1.7549	0.28994	3273450.0	1776544937.224246	0.0	1.0	-1.0	-1.0	-1.0	-1.0	-1.0	-1.0	-1.0	-1.0	0.0	marker	peace	Peace	22	0418
-68034.69	-54676.17	-104351.265	-18357.704999999998	0.0	0.0	0.0	0.0	0.0	0.0	0.0	0.0	0.0	0.0	0.0	0.0	0.0	0.0	146.0	0.0	0.06457503	-0.08251932000000001	1.003598505	5.1121	1.7549	0.28994	3273451.0	1776544937.224262	0.0	1.0	-1.0	-1.0	-1.0	-1.0	-1.0	-1.0	-1.0	-1.0	0.0	marker	peace	Peace	22	0418
-67981.545	-54674.549999999996	-104293.215	-18357.39	0.0	0.0	0.0	0.0	0.0	0.0	0.0	0.0	0.0	0.0	0.0	0.0	0.0	0.0	146.0	0.0	0.06457503	-0.08251932000000001	1.003598505	5.1121	1.7549	0.28994	3273452.0	1776544937.227927	0.0	1.0	-1.0	-1.0	-1.0	-1.0	-1.0	-1.0	-1.0	-1.0	0.0	marker	peace	Peace	22	0418
-67983.705	-54674.82	-104282.19	-18344.34	0.0	0.0	0.0	0.0	0.0	0.0	0.0	0.0	0.0	0.0	0.0	0.0	0.0	0.0	146.0	0.0	0.06457503	-0.08251932000000001	1.003598505	5.1121	1.7549	0.28994	3273453.0	1776544937.22794	0.0	1.0	-1.0	-1.0	-1.0	-1.0	-1.0	-1.0	-1.0	-1.0	0.0	marker	peace	Peace	22	0418
-68099.58	-54684.945	-104364.9	-18418.77	0.0	0.0	0.0	0.0	0.0	0.0	0.0	0.0	0.0	0.0	0.0	0.0	0.0	0.0	146.0	0.0	0.06457503	-0.08251932000000001	1.003598505	5.1121	1.7549	0.28994	3273454.0	1776544937.232029	0.0	1.0	-1.0	-1.0	-1.0	-1.0	-1.0	-1.0	-1.0	-1.0	0.0	marker	peace	Peace	22	0418
-68037.97499999999	-54679.68	-104318.86499999999	-18380.88	0.0	0.0	0.0	0.0	0.0	0.0	0.0	0.0	0.0	0.0	0.0	0.0	0.0	0.0	146.0	0.0	0.06457503	-0.08251932000000001	1.003598505	5.1121	1.7549	0.28994	3273455.0	1776544937.232043	0.0	1.0	-1.0	-1.0	-1.0	-1.0	-1.0	-1.0	-1.0	-1.0	0.0	marker	peace	Peace	22	0418
-67894.245	-54668.88	-104187.78	-18278.82	0.0	0.0	0.0	0.0	0.0	0.0	0.0	0.0	0.0	0.0	0.0	0.0	0.0	0.0	146.0	0.0	0.06457503	-0.08251932000000001	1.003598505	5.1121	1.7549	0.28994	3273456.0	1776544937.235929	0.0	1.0	-1.0	-1.0	-1.0	-1.0	-1.0	-1.0	-1.0	-1.0	0.0	marker	peace	Peace	22	0418
-67922.37	-54667.89	-104200.73999999999	-18275.445	0.0	0.0	0.0	0.0	0.0	0.0	0.0	0.0	0.0	0.0	0.0	0.0	0.0	0.0	146.0	0.0	0.06457503	-0.08251932000000001	1.003598505	5.1121	1.7549	0.28994	3273457.0	1776544937.235953	0.0	1.0	-1.0	-1.0	-1.0	-1.0	-1.0	-1.0	-1.0	-1.0	0.0	marker	peace	Peace	22	0418
-68142.645	-54686.97	-104392.62	-18430.605	0.0	0.0	0.0	0.0	0.0	0.0	0.0	0.0	0.0	0.0	0.0	0.0	0.0	0.0	146.0	0.0	0.06457503	-0.08251932000000001	1.003598505	5.1121	1.7549	0.28994	3273458.0	1776544937.239871	0.0	1.0	-1.0	-1.0	-1.0	-1.0	-1.0	-1.0	-1.0	-1.0	0.0	marker	peace	Peace	22	0418
-68153.04	-54689.895	-104411.79	-18462.015	0.0	0.0	0.0	0.0	0.0	0.0	0.0	0.0	0.0	0.0	0.0	0.0	0.0	0.0	146.0	0.0	0.06457503	-0.08251932000000001	1.003598505	5.1121	1.7549	0.28994	3273459.0	1776544937.239884	0.0	1.0	-1.0	-1.0	-1.0	-1.0	-1.0	-1.0	-1.0	-1.0	0.0	marker	peace	Peace	22	0418
-68071.77	-54683.865	-104333.44499999999	-18398.7	0.0	0.0	0.0	0.0	0.0	0.0	0.0	0.0	0.0	0.0	0.0	0.0	0.0	0.0	146.0	0.0	0.05773911	-0.086486595	1.007504745	6.62284	2.3653	0.97664	3273460.0	1776544937.244018	0.0	1.0	-1.0	-1.0	-1.0	-1.0	-1.0	-1.0	-1.0	-1.0	0.0	marker	peace	Peace	22	0418
-68066.055	-54687.915	-104342.48999999999	-18404.46	0.0	0.0	0.0	0.0	0.0	0.0	0.0	0.0	0.0	0.0	0.0	0.0	0.0	0.0	146.0	0.0	0.05773911	-0.086486595	1.007504745	6.62284	2.3653	0.97664	3273461.0	1776544937.244031	0.0	1.0	-1.0	-1.0	-1.0	-1.0	-1.0	-1.0	-1.0	-1.0	0.0	marker	peace	Peace	22	0418
-68040.855	-54694.215	-104329.98	-18382.77	0.0	0.0	0.0	0.0	0.0	0.0	0.0	0.0	0.0	0.0	0.0	0.0	0.0	0.0	146.0	0.0	0.05773911	-0.086486595	1.007504745	6.62284	2.3653	0.97664	3273462.0	1776544937.247989	0.0	1.0	-1.0	-1.0	-1.0	-1.0	-1.0	-1.0	-1.0	-1.0	0.0	marker	peace	Peace	22	0418
-68010.3	-54697.005	-104262.93	-18345.78	0.0	0.0	0.0	0.0	0.0	0.0	0.0	0.0	0.0	0.0	0.0	0.0	0.0	0.0	146.0	0.0	0.05773911	-0.086486595	1.007504745	6.62284	2.3653	0.97664	3273463.0	1776544937.248004	0.0	1.0	-1.0	-1.0	-1.0	-1.0	-1.0	-1.0	-1.0	-1.0	0.0	marker	peace	Peace	22	0418
-68017.05	-54690.615	-104225.625	-18338.715	0.0	0.0	0.0	0.0	0.0	0.0	0.0	0.0	0.0	0.0	0.0	0.0	0.0	0.0	146.0	0.0	0.05773911	-0.086486595	1.007504745	6.62284	2.3653	0.97664	3273464.0	1776544937.252071	0.0	1.0	-1.0	-1.0	-1.0	-1.0	-1.0	-1.0	-1.0	-1.0	0.0	marker	peace	Peace	22	0418
-68017.77	-54682.965	-104271.345	-18379.89	0.0	0.0	0.0	0.0	0.0	0.0	0.0	0.0	0.0	0.0	0.0	0.0	0.0	0.0	146.0	0.0	0.05773911	-0.086486595	1.007504745	6.62284	2.3653	0.97664	3273465.0	1776544937.252085	0.0	1.0	-1.0	-1.0	-1.0	-1.0	-1.0	-1.0	-1.0	-1.0	0.0	marker	peace	Peace	22	0418
-68044.815	-54670.14	-104280.48	-18374.579999999998	0.0	0.0	0.0	0.0	0.0	0.0	0.0	0.0	0.0	0.0	0.0	0.0	0.0	0.0	146.0	0.0	0.05773911	-0.086486595	1.007504745	6.62284	2.3653	0.97664	3273466.0	1776544937.261074	0.0	1.0	-1.0	-1.0	-1.0	-1.0	-1.0	-1.0	-1.0	-1.0	0.0	marker	peace	Peace	22	0418
-68080.5	-54664.784999999996	-104299.73999999999	-18370.755	0.0	0.0	0.0	0.0	0.0	0.0	0.0	0.0	0.0	0.0	0.0	0.0	0.0	0.0	146.0	0.0	0.05773911	-0.086486595	1.007504745	6.62284	2.3653	0.97664	3273467.0	1776544937.261089	0.0	1.0	-1.0	-1.0	-1.0	-1.0	-1.0	-1.0	-1.0	-1.0	0.0	marker	peace	Peace	22	0418
-68044.455	-54658.799999999996	-104304.465	-18377.235	0.0	0.0	0.0	0.0	0.0	0.0	0.0	0.0	0.0	0.0	0.0	0.0	0.0	0.0	146.0	0.0	0.05773911	-0.086486595	1.007504745	6.62284	2.3653	0.97664	3273468.0	1776544937.261113	0.0	1.0	-1.0	-1.0	-1.0	-1.0	-1.0	-1.0	-1.0	-1.0	0.0	marker	peace	Peace	22	0418
-68027.31	-54661.005	-104367.915	-18395.325	0.0	0.0	0.0	0.0	0.0	0.0	0.0	0.0	0.0	0.0	0.0	0.0	0.0	0.0	146.0	0.0	0.05773911	-0.086486595	1.007504745	6.62284	2.3653	0.97664	3273469.0	1776544937.261124	0.0	1.0	-1.0	-1.0	-1.0	-1.0	-1.0	-1.0	-1.0	-1.0	0.0	marker	peace	Peace	22	0418
-68047.29	-54661.095	-104339.83499999999	-18384.165	0.0	0.0	0.0	0.0	0.0	0.0	0.0	0.0	0.0	0.0	0.0	0.0	0.0	0.0	146.0	0.0	0.058776705	-0.08898903	1.00744371	7.08064	2.62472	0.10682	3273470.0	1776544937.263985	0.0	1.0	-1.0	-1.0	-1.0	-1.0	-1.0	-1.0	-1.0	-1.0	0.0	marker	peace	Peace	22	0418
-68046.03	-54667.755	-104325.39	-18359.864999999998	0.0	0.0	0.0	0.0	0.0	0.0	0.0	0.0	0.0	0.0	0.0	0.0	0.0	0.0	146.0	0.0	0.058776705	-0.08898903	1.00744371	7.08064	2.62472	0.10682	3273471.0	1776544937.264002	0.0	1.0	-1.0	-1.0	-1.0	-1.0	-1.0	-1.0	-1.0	-1.0	0.0	marker	peace	Peace	22	0418
-67991.625	-54669.104999999996	-104281.69499999999	-18334.755	0.0	0.0	0.0	0.0	0.0	0.0	0.0	0.0	0.0	0.0	0.0	0.0	0.0	0.0	146.0	0.0	0.058776705	-0.08898903	1.00744371	7.08064	2.62472	0.10682	3273472.0	1776544937.268009	0.0	1.0	-1.0	-1.0	-1.0	-1.0	-1.0	-1.0	-1.0	-1.0	0.0	marker	peace	Peace	22	0418
-67995.045	-54668.52	-104248.34999999999	-18334.89	0.0	0.0	0.0	0.0	0.0	0.0	0.0	0.0	0.0	0.0	0.0	0.0	0.0	0.0	146.0	0.0	0.058776705	-0.08898903	1.00744371	7.08064	2.62472	0.10682	3273473.0	1776544937.268024	0.0	1.0	-1.0	-1.0	-1.0	-1.0	-1.0	-1.0	-1.0	-1.0	0.0	marker	peace	Peace	22	0418
-67962.33	-54669.869999999995	-104263.245	-18342.405	0.0	0.0	0.0	0.0	0.0	0.0	0.0	0.0	0.0	0.0	0.0	0.0	0.0	0.0	146.0	0.0	0.058776705	-0.08898903	1.00744371	7.08064	2.62472	0.10682	3273474.0	1776544937.271783	0.0	1.0	-1.0	-1.0	-1.0	-1.0	-1.0	-1.0	-1.0	-1.0	0.0	marker	peace	Peace	22	0418
-67884.255	-54653.085	-104191.01999999999	-18275.805	0.0	0.0	0.0	0.0	0.0	0.0	0.0	0.0	0.0	0.0	0.0	0.0	0.0	0.0	146.0	0.0	0.058776705	-0.08898903	1.00744371	7.08064	2.62472	0.10682	3273475.0	1776544937.271806	0.0	1.0	-1.0	-1.0	-1.0	-1.0	-1.0	-1.0	-1.0	-1.0	0.0	marker	peace	Peace	22	0418
-68016.59999999999	-54653.4	-104270.58	-18362.07	0.0	0.0	0.0	0.0	0.0	0.0	0.0	0.0	0.0	0.0	0.0	0.0	0.0	0.0	146.0	0.0	0.058776705	-0.08898903	1.00744371	7.08064	2.62472	0.10682	3273476.0	1776544937.276131	0.0	1.0	-1.0	-1.0	-1.0	-1.0	-1.0	-1.0	-1.0	-1.0	0.0	marker	peace	Peace	22	0418
-68023.98	-54648.36	-104265.54	-18346.454999999998	0.0	0.0	0.0	0.0	0.0	0.0	0.0	0.0	0.0	0.0	0.0	0.0	0.0	0.0	146.0	0.0	0.058776705	-0.08898903	1.00744371	7.08064	2.62472	0.10682	3273477.0	1776544937.276144	0.0	1.0	-1.0	-1.0	-1.0	-1.0	-1.0	-1.0	-1.0	-1.0	0.0	marker	peace	Peace	22	0418
-67889.295	-54641.115	-104163.56999999999	-18224.055	0.0	0.0	0.0	0.0	0.0	0.0	0.0	0.0	0.0	0.0	0.0	0.0	0.0	0.0	146.0	0.0	0.058776705	-0.08898903	1.00744371	7.08064	2.62472	0.10682	3273478.0	1776544937.28193	0.0	1.0	-1.0	-1.0	-1.0	-1.0	-1.0	-1.0	-1.0	-1.0	0.0	marker	peace	Peace	22	0418
-67959.72	-54664.244999999995	-104236.875	-18304.335	0.0	0.0	0.0	0.0	0.0	0.0	0.0	0.0	0.0	0.0	0.0	0.0	0.0	0.0	146.0	0.0	0.058776705	-0.08898903	1.00744371	7.08064	2.62472	0.10682	3273479.0	1776544937.281952	0.0	1.0	-1.0	-1.0	-1.0	-1.0	-1.0	-1.0	-1.0	-1.0	0.0	marker	peace	Peace	22	0418
-68174.19	-54686.655	-104385.87	-18495.989999999998	0.0	0.0	0.0	0.0	0.0	0.0	0.0	0.0	0.0	0.0	0.0	0.0	0.0	0.0	146.0	0.0	0.05505357	-0.083068635	1.01366928	6.653359999999999	2.10588	-1.4191799999999999	3273480.0	1776544937.284238	0.0	1.0	-1.0	-1.0	-1.0	-1.0	-1.0	-1.0	-1.0	-1.0	0.0	marker	peace	Peace	22	0418
-68128.73999999999	-54675.225	-104303.7	-18437.805	0.0	0.0	0.0	0.0	0.0	0.0	0.0	0.0	0.0	0.0	0.0	0.0	0.0	0.0	146.0	0.0	0.05505357	-0.083068635	1.01366928	6.653359999999999	2.10588	-1.4191799999999999	3273481.0	1776544937.284253	0.0	1.0	-1.0	-1.0	-1.0	-1.0	-1.0	-1.0	-1.0	-1.0	0.0	marker	peace	Peace	22	0418
-68085.045	-54663.435	-104280.12	-18387.045	0.0	0.0	0.0	0.0	0.0	0.0	0.0	0.0	0.0	0.0	0.0	0.0	0.0	0.0	146.0	0.0	0.05505357	-0.083068635	1.01366928	6.653359999999999	2.10588	-1.4191799999999999	3273482.0	1776544937.288132	0.0	1.0	-1.0	-1.0	-1.0	-1.0	-1.0	-1.0	-1.0	-1.0	0.0	marker	peace	Peace	22	0418
-68051.745	-54663.704999999994	-104328.045	-18374.265	0.0	0.0	0.0	0.0	0.0	0.0	0.0	0.0	0.0	0.0	0.0	0.0	0.0	0.0	146.0	0.0	0.05505357	-0.083068635	1.01366928	6.653359999999999	2.10588	-1.4191799999999999	3273483.0	1776544937.288166	0.0	1.0	-1.0	-1.0	-1.0	-1.0	-1.0	-1.0	-1.0	-1.0	0.0	marker	peace	Peace	22	0418
-68048.86499999999	-54661.814999999995	-104339.06999999999	-18394.2	0.0	0.0	0.0	0.0	0.0	0.0	0.0	0.0	0.0	0.0	0.0	0.0	0.0	0.0	146.0	0.0	0.05505357	-0.083068635	1.01366928	6.653359999999999	2.10588	-1.4191799999999999	3273484.0	1776544937.294771	0.0	1.0	-1.0	-1.0	-1.0	-1.0	-1.0	-1.0	-1.0	-1.0	0.0	marker	peace	Peace	22	0418
-68078.655	-54669.555	-104346.98999999999	-18399.69	0.0	0.0	0.0	0.0	0.0	0.0	0.0	0.0	0.0	0.0	0.0	0.0	0.0	0.0	146.0	0.0	0.05505357	-0.083068635	1.01366928	6.653359999999999	2.10588	-1.4191799999999999	3273485.0	1776544937.294784	0.0	1.0	-1.0	-1.0	-1.0	-1.0	-1.0	-1.0	-1.0	-1.0	0.0	marker	peace	Peace	22	0418
-68042.52	-54677.564999999995	-104287.815	-18358.785	0.0	0.0	0.0	0.0	0.0	0.0	0.0	0.0	0.0	0.0	0.0	0.0	0.0	0.0	146.0	0.0	0.05505357	-0.083068635	1.01366928	6.653359999999999	2.10588	-1.4191799999999999	3273486.0	1776544937.297836	0.0	1.0	-1.0	-1.0	-1.0	-1.0	-1.0	-1.0	-1.0	-1.0	0.0	marker	peace	Peace	22	0418
-67985.19	-54678.284999999996	-104235.345	-18341.64	0.0	0.0	0.0	0.0	0.0	0.0	0.0	0.0	0.0	0.0	0.0	0.0	0.0	0.0	146.0	0.0	0.05505357	-0.083068635	1.01366928	6.653359999999999	2.10588	-1.4191799999999999	3273487.0	1776544937.297857	0.0	1.0	-1.0	-1.0	-1.0	-1.0	-1.0	-1.0	-1.0	-1.0	0.0	marker	peace	Peace	22	0418
-67984.69499999999	-54696.555	-104238.855	-18341.864999999998	0.0	0.0	0.0	0.0	0.0	0.0	0.0	0.0	0.0	0.0	0.0	0.0	0.0	0.0	146.0	0.0	0.05505357	-0.083068635	1.01366928	6.653359999999999	2.10588	-1.4191799999999999	3273488.0	1776544937.300886	0.0	1.0	-1.0	-1.0	-1.0	-1.0	-1.0	-1.0	-1.0	-1.0	0.0	marker	peace	Peace	22	0418
-68048.86499999999	-54704.655	-104272.515	-18362.34	0.0	0.0	0.0	0.0	0.0	0.0	0.0	0.0	0.0	0.0	0.0	0.0	0.0	0.0	146.0	0.0	0.05505357	-0.083068635	1.01366928	6.653359999999999	2.10588	-1.4191799999999999	3273489.0	1776544937.300952	0.0	1.0	-1.0	-1.0	-1.0	-1.0	-1.0	-1.0	-1.0	-1.0	0.0	marker	peace	Peace	22	0418
-68062.68	-54711.494999999995	-104299.515	-18411.48	0.0	0.0	0.0	0.0	0.0	0.0	0.0	0.0	0.0	0.0	0.0	0.0	0.0	0.0	146.0	0.0	0.047057985000000004	-0.071716125	1.0192845	3.9828599999999996	0.8698199999999999	-2.38056	3273490.0	1776544937.309595	0.0	1.0	-1.0	-1.0	-1.0	-1.0	-1.0	-1.0	-1.0	-1.0	0.0	marker	peace	Peace	22	0418
-68048.86499999999	-54714.465	-104351.94	-18401.805	0.0	0.0	0.0	0.0	0.0	0.0	0.0	0.0	0.0	0.0	0.0	0.0	0.0	0.0	146.0	0.0	0.047057985000000004	-0.071716125	1.0192845	3.9828599999999996	0.8698199999999999	-2.38056	3273491.0	1776544937.30961	0.0	1.0	-1.0	-1.0	-1.0	-1.0	-1.0	-1.0	-1.0	-1.0	0.0	marker	peace	Peace	22	0418
-67991.04	-54704.79	-104338.39499999999	-18376.649999999998	0.0	0.0	0.0	0.0	0.0	0.0	0.0	0.0	0.0	0.0	0.0	0.0	0.0	0.0	146.0	0.0	0.047057985000000004	-0.071716125	1.0192845	3.9828599999999996	0.8698199999999999	-2.38056	3273492.0	1776544937.309633	0.0	1.0	-1.0	-1.0	-1.0	-1.0	-1.0	-1.0	-1.0	-1.0	0.0	marker	peace	Peace	22	0418
-67972.68	-54696.869999999995	-104274.09	-18351.09	0.0	0.0	0.0	0.0	0.0	0.0	0.0	0.0	0.0	0.0	0.0	0.0	0.0	0.0	146.0	0.0	0.047057985000000004	-0.071716125	1.0192845	3.9828599999999996	0.8698199999999999	-2.38056	3273493.0	1776544937.309643	0.0	1.0	-1.0	-1.0	-1.0	-1.0	-1.0	-1.0	-1.0	-1.0	0.0	marker	peace	Peace	22	0418
-68013.72	-54692.595	-104261.48999999999	-18356.309999999998	0.0	0.0	0.0	0.0	0.0	0.0	0.0	0.0	0.0	0.0	0.0	0.0	0.0	0.0	146.0	0.0	0.047057985000000004	-0.071716125	1.0192845	3.9828599999999996	0.8698199999999999	-2.38056	3273494.0	1776544937.312856	0.0	1.0	-1.0	-1.0	-1.0	-1.0	-1.0	-1.0	-1.0	-1.0	0.0	marker	peace	Peace	22	0418
-68068.755	-54699.84	-104298.65999999999	-18382.815	0.0	0.0	0.0	0.0	0.0	0.0	0.0	0.0	0.0	0.0	0.0	0.0	0.0	0.0	146.0	0.0	0.047057985000000004	-0.071716125	1.0192845	3.9828599999999996	0.8698199999999999	-2.38056	3273495.0	1776544937.312871	0.0	1.0	-1.0	-1.0	-1.0	-1.0	-1.0	-1.0	-1.0	-1.0	0.0	marker	peace	Peace	22	0418
-68057.055	-54722.115	-104292.62999999999	-18364.95	0.0	0.0	0.0	0.0	0.0	0.0	0.0	0.0	0.0	0.0	0.0	0.0	0.0	0.0	146.0	0.0	0.047057985000000004	-0.071716125	1.0192845	3.9828599999999996	0.8698199999999999	-2.38056	3273496.0	1776544937.317135	0.0	1.0	-1.0	-1.0	-1.0	-1.0	-1.0	-1.0	-1.0	-1.0	0.0	marker	peace	Peace	22	0418
-67976.505	-54712.845	-104211.45	-18311.355	0.0	0.0	0.0	0.0	0.0	0.0	0.0	0.0	0.0	0.0	0.0	0.0	0.0	0.0	146.0	0.0	0.047057985000000004	-0.071716125	1.0192845	3.9828599999999996	0.8698199999999999	-2.38056	3273497.0	1776544937.317163	0.0	1.0	-1.0	-1.0	-1.0	-1.0	-1.0	-1.0	-1.0	-1.0	0.0	marker	peace	Peace	22	0418
-67915.62	-54689.354999999996	-104192.055	-18293.355	0.0	0.0	0.0	0.0	0.0	0.0	0.0	0.0	0.0	0.0	0.0	0.0	0.0	0.0	146.0	0.0	0.047057985000000004	-0.071716125	1.0192845	3.9828599999999996	0.8698199999999999	-2.38056	3273498.0	1776544937.320488	0.0	1.0	-1.0	-1.0	-1.0	-1.0	-1.0	-1.0	-1.0	-1.0	0.0	marker	peace	Peace	22	0418
-67930.29	-54679.77	-104247.18	-18303.12	0.0	0.0	0.0	0.0	0.0	0.0	0.0	0.0	0.0	0.0	0.0	0.0	0.0	0.0	146.0	0.0	0.047057985000000004	-0.071716125	1.0192845	3.9828599999999996	0.8698199999999999	-2.38056	3273499.0	1776544937.320505	0.0	1.0	-1.0	-1.0	-1.0	-1.0	-1.0	-1.0	-1.0	-1.0	0.0	marker	peace	Peace	22	0418
-67838.4	-54672.884999999995	-104180.48999999999	-18233.864999999998	0.0	0.0	0.0	0.0	0.0	0.0	0.0	0.0	0.0	0.0	0.0	0.0	0.0	0.0	146.0	0.0	0.043884165	-0.06823713000000001	1.02599835	3.6624	-0.16785999999999998	-2.2127	3273500.0	1776544937.324374	0.0	1.0	-1.0	-1.0	-1.0	-1.0	-1.0	-1.0	-1.0	-1.0	0.0	marker	peace	Peace	22	0418
-68122.575	-54684.765	-104370.84	-18419.219999999998	0.0	0.0	0.0	0.0	0.0	0.0	0.0	0.0	0.0	0.0	0.0	0.0	0.0	0.0	146.0	0.0	0.043884165	-0.06823713000000001	1.02599835	3.6624	-0.16785999999999998	-2.2127	3273501.0	1776544937.3244	0.0	1.0	-1.0	-1.0	-1.0	-1.0	-1.0	-1.0	-1.0	-1.0	0.0	marker	peace	Peace	22	0418
-68169.23999999999	-54705.104999999996	-104393.025	-18463.14	0.0	0.0	0.0	0.0	0.0	0.0	0.0	0.0	0.0	0.0	0.0	0.0	0.0	0.0	146.0	0.0	0.043884165	-0.06823713000000001	1.02599835	3.6624	-0.16785999999999998	-2.2127	3273502.0	1776544937.32832	0.0	1.0	-1.0	-1.0	-1.0	-1.0	-1.0	-1.0	-1.0	-1.0	0.0	marker	peace	Peace	22	0418
-68094.405	-54741.869999999995	-104347.98	-18407.07	0.0	0.0	0.0	0.0	0.0	0.0	0.0	0.0	0.0	0.0	0.0	0.0	0.0	0.0	146.0	0.0	0.043884165	-0.06823713000000001	1.02599835	3.6624	-0.16785999999999998	-2.2127	3273503.0	1776544937.328334	0.0	1.0	-1.0	-1.0	-1.0	-1.0	-1.0	-1.0	-1.0	-1.0	0.0	marker	peace	Peace	22	0418
-68082.165	-54765.225	-104339.205	-18391.815	0.0	0.0	0.0	0.0	0.0	0.0	0.0	0.0	0.0	0.0	0.0	0.0	0.0	0.0	146.0	0.0	0.043884165	-0.06823713000000001	1.02599835	3.6624	-0.16785999999999998	-2.2127	3273504.0	1776544937.332257	0.0	1.0	-1.0	-1.0	-1.0	-1.0	-1.0	-1.0	-1.0	-1.0	0.0	marker	peace	Peace	22	0418
-68064.705	-54771.119999999995	-104297.58	-18380.88	0.0	0.0	0.0	0.0	0.0	0.0	0.0	0.0	0.0	0.0	0.0	0.0	0.0	0.0	146.0	0.0	0.043884165	-0.06823713000000001	1.02599835	3.6624	-0.16785999999999998	-2.2127	3273505.0	1776544937.332276	0.0	1.0	-1.0	-1.0	-1.0	-1.0	-1.0	-1.0	-1.0	-1.0	0.0	marker	peace	Peace	22	0418
-68054.48999999999	-54771.479999999996	-104276.745	-18370.305	0.0	0.0	0.0	0.0	0.0	0.0	0.0	0.0	0.0	0.0	0.0	0.0	0.0	0.0	146.0	0.0	0.043884165	-0.06823713000000001	1.02599835	3.6624	-0.16785999999999998	-2.2127	3273506.0	1776544937.336314	0.0	1.0	-1.0	-1.0	-1.0	-1.0	-1.0	-1.0	-1.0	-1.0	0.0	marker	peace	Peace	22	0418
-68057.64	-54763.064999999995	-104317.965	-18383.94	0.0	0.0	0.0	0.0	0.0	0.0	0.0	0.0	0.0	0.0	0.0	0.0	0.0	0.0	146.0	0.0	0.043884165	-0.06823713000000001	1.02599835	3.6624	-0.16785999999999998	-2.2127	3273507.0	1776544937.336335	0.0	1.0	-1.0	-1.0	-1.0	-1.0	-1.0	-1.0	-1.0	-1.0	0.0	marker	peace	Peace	22	0418
-68060.79	-54757.799999999996	-104346.26999999999	-18388.215	0.0	0.0	0.0	0.0	0.0	0.0	0.0	0.0	0.0	0.0	0.0	0.0	0.0	0.0	146.0	0.0	0.043884165	-0.06823713000000001	1.02599835	3.6624	-0.16785999999999998	-2.2127	3273508.0	1776544937.340305	0.0	1.0	-1.0	-1.0	-1.0	-1.0	-1.0	-1.0	-1.0	-1.0	0.0	marker	peace	Peace	22	0418
-68068.62	-54748.979999999996	-104306.04	-18378.135	0.0	0.0	0.0	0.0	0.0	0.0	0.0	0.0	0.0	0.0	0.0	0.0	0.0	0.0	146.0	0.0	0.043884165	-0.06823713000000001	1.02599835	3.6624	-0.16785999999999998	-2.2127	3273509.0	1776544937.340321	0.0	1.0	-1.0	-1.0	-1.0	-1.0	-1.0	-1.0	-1.0	-1.0	0.0	marker	peace	Peace	22	0418
-68017.68	-54734.625	-104259.42	-18342.989999999998	0.0	0.0	0.0	0.0	0.0	0.0	0.0	0.0	0.0	0.0	0.0	0.0	0.0	0.0	146.0	0.0	0.042419325	-0.06860334	1.028866995	2.8383599999999998	-1.3428799999999999	-1.8617199999999998	3273510.0	1776544937.344826	0.0	1.0	-1.0	-1.0	-1.0	-1.0	-1.0	-1.0	-1.0	-1.0	0.0	marker	peace	Peace	22	0418
-68007.51	-54731.204999999994	-104292.675	-18355.5	0.0	0.0	0.0	0.0	0.0	0.0	0.0	0.0	0.0	0.0	0.0	0.0	0.0	0.0	146.0	0.0	0.042419325	-0.06860334	1.028866995	2.8383599999999998	-1.3428799999999999	-1.8617199999999998	3273511.0	1776544937.344837	0.0	1.0	-1.0	-1.0	-1.0	-1.0	-1.0	-1.0	-1.0	-1.0	0.0	marker	peace	Peace	22	0418
-68045.805	-54738.854999999996	-104344.37999999999	-18395.594999999998	0.0	0.0	0.0	0.0	0.0	0.0	0.0	0.0	0.0	0.0	0.0	0.0	0.0	0.0	146.0	0.0	0.042419325	-0.06860334	1.028866995	2.8383599999999998	-1.3428799999999999	-1.8617199999999998	3273512.0	1776544937.348276	0.0	1.0	-1.0	-1.0	-1.0	-1.0	-1.0	-1.0	-1.0	-1.0	0.0	marker	peace	Peace	22	0418
-68033.16	-54740.924999999996	-104294.87999999999	-18367.695	0.0	0.0	0.0	0.0	0.0	0.0	0.0	0.0	0.0	0.0	0.0	0.0	0.0	0.0	146.0	0.0	0.042419325	-0.06860334	1.028866995	2.8383599999999998	-1.3428799999999999	-1.8617199999999998	3273513.0	1776544937.348299	0.0	1.0	-1.0	-1.0	-1.0	-1.0	-1.0	-1.0	-1.0	-1.0	0.0	marker	peace	Peace	22	0418
-68029.83	-54737.28	-104304.19499999999	-18387.315	0.0	0.0	0.0	0.0	0.0	0.0	0.0	0.0	0.0	0.0	0.0	0.0	0.0	0.0	146.0	0.0	0.042419325	-0.06860334	1.028866995	2.8383599999999998	-1.3428799999999999	-1.8617199999999998	3273514.0	1776544937.352338	0.0	1.0	-1.0	-1.0	-1.0	-1.0	-1.0	-1.0	-1.0	-1.0	0.0	marker	peace	Peace	22	0418
-67998.825	-54736.155	-104251.635	-18363.239999999998	0.0	0.0	0.0	0.0	0.0	0.0	0.0	0.0	0.0	0.0	0.0	0.0	0.0	0.0	146.0	0.0	0.042419325	-0.06860334	1.028866995	2.8383599999999998	-1.3428799999999999	-1.8617199999999998	3273515.0	1776544937.352368	0.0	1.0	-1.0	-1.0	-1.0	-1.0	-1.0	-1.0	-1.0	-1.0	0.0	marker	peace	Peace	22	0418
-67956.93	-54724.545	-104156.19	-18301.005	0.0	0.0	0.0	0.0	0.0	0.0	0.0	0.0	0.0	0.0	0.0	0.0	0.0	0.0	146.0	0.0	0.042419325	-0.06860334	1.028866995	2.8383599999999998	-1.3428799999999999	-1.8617199999999998	3273516.0	1776544937.357168	0.0	1.0	-1.0	-1.0	-1.0	-1.0	-1.0	-1.0	-1.0	-1.0	0.0	marker	peace	Peace	22	0418
-67905.45	-54708.165	-104110.83	-18255.329999999998	0.0	0.0	0.0	0.0	0.0	0.0	0.0	0.0	0.0	0.0	0.0	0.0	0.0	0.0	146.0	0.0	0.042419325	-0.06860334	1.028866995	2.8383599999999998	-1.3428799999999999	-1.8617199999999998	3273517.0	1776544937.357183	0.0	1.0	-1.0	-1.0	-1.0	-1.0	-1.0	-1.0	-1.0	-1.0	0.0	marker	peace	Peace	22	0418
-67937.94	-54712.395	-104262.84	-18311.13	0.0	0.0	0.0	0.0	0.0	0.0	0.0	0.0	0.0	0.0	0.0	0.0	0.0	0.0	146.0	0.0	0.042419325	-0.06860334	1.028866995	2.8383599999999998	-1.3428799999999999	-1.8617199999999998	3273518.0	1776544937.360335	0.0	1.0	-1.0	-1.0	-1.0	-1.0	-1.0	-1.0	-1.0	-1.0	0.0	marker	peace	Peace	22	0418
-68041.8	-54723.78	-104394.59999999999	-18387.719999999998	0.0	0.0	0.0	0.0	0.0	0.0	0.0	0.0	0.0	0.0	0.0	0.0	0.0	0.0	146.0	0.0	0.042419325	-0.06860334	1.028866995	2.8383599999999998	-1.3428799999999999	-1.8617199999999998	3273519.0	1776544937.360345	0.0	1.0	-1.0	-1.0	-1.0	-1.0	-1.0	-1.0	-1.0	-1.0	0.0	marker	peace	Peace	22	0418
-68077.26	-54716.354999999996	-104372.50499999999	-18398.43	0.0	0.0	0.0	0.0	0.0	0.0	0.0	0.0	0.0	0.0	0.0	0.0	0.0	0.0	146.0	0.0	0.045837285	-0.0683592	1.02770733	3.02148	-2.2127	-1.0682	3273520.0	1776544937.364481	0.0	1.0	-1.0	-1.0	-1.0	-1.0	-1.0	-1.0	-1.0	-1.0	0.0	marker	peace	Peace	22	0418
-68060.25	-54713.655	-104322.59999999999	-18376.155	0.0	0.0	0.0	0.0	0.0	0.0	0.0	0.0	0.0	0.0	0.0	0.0	0.0	0.0	146.0	0.0	0.045837285	-0.0683592	1.02770733	3.02148	-2.2127	-1.0682	3273521.0	1776544937.364506	0.0	1.0	-1.0	-1.0	-1.0	-1.0	-1.0	-1.0	-1.0	-1.0	0.0	marker	peace	Peace	22	0418
-68002.47	-54714.915	-104253.93	-18334.305	0.0	0.0	0.0	0.0	0.0	0.0	0.0	0.0	0.0	0.0	0.0	0.0	0.0	0.0	146.0	0.0	0.045837285	-0.0683592	1.02770733	3.02148	-2.2127	-1.0682	3273522.0	1776544937.368467	0.0	1.0	-1.0	-1.0	-1.0	-1.0	-1.0	-1.0	-1.0	-1.0	0.0	marker	peace	Peace	22	0418
-67992.885	-54711.18	-104259.95999999999	-18342.18	0.0	0.0	0.0	0.0	0.0	0.0	0.0	0.0	0.0	0.0	0.0	0.0	0.0	0.0	146.0	0.0	0.045837285	-0.0683592	1.02770733	3.02148	-2.2127	-1.0682	3273523.0	1776544937.368491	0.0	1.0	-1.0	-1.0	-1.0	-1.0	-1.0	-1.0	-1.0	-1.0	0.0	marker	peace	Peace	22	0418
-68055.255	-54702.63	-104282.01	-18391.274999999998	0.0	0.0	0.0	0.0	0.0	0.0	0.0	0.0	0.0	0.0	0.0	0.0	0.0	0.0	146.0	0.0	0.045837285	-0.0683592	1.02770733	3.02148	-2.2127	-1.0682	3273524.0	1776544937.37248	0.0	1.0	-1.0	-1.0	-1.0	-1.0	-1.0	-1.0	-1.0	-1.0	0.0	marker	peace	Peace	22	0418
-68033.52	-54696.06	-104263.29	-18388.125	0.0	0.0	0.0	0.0	0.0	0.0	0.0	0.0	0.0	0.0	0.0	0.0	0.0	0.0	146.0	0.0	0.045837285	-0.0683592	1.02770733	3.02148	-2.2127	-1.0682	3273525.0	1776544937.372502	0.0	1.0	-1.0	-1.0	-1.0	-1.0	-1.0	-1.0	-1.0	-1.0	0.0	marker	peace	Peace	22	0418
-68026.905	-54694.619999999995	-104300.64	-18402.255	0.0	0.0	0.0	0.0	0.0	0.0	0.0	0.0	0.0	0.0	0.0	0.0	0.0	0.0	146.0	0.0	0.045837285	-0.0683592	1.02770733	3.02148	-2.2127	-1.0682	3273526.0	1776544937.376459	0.0	1.0	-1.0	-1.0	-1.0	-1.0	-1.0	-1.0	-1.0	-1.0	0.0	marker	peace	Peace	22	0418
-68058.98999999999	-54704.115	-104355.135	-18414.0	0.0	0.0	0.0	0.0	0.0	0.0	0.0	0.0	0.0	0.0	0.0	0.0	0.0	0.0	146.0	0.0	0.045837285	-0.0683592	1.02770733	3.02148	-2.2127	-1.0682	3273527.0	1776544937.376474	0.0	1.0	-1.0	-1.0	-1.0	-1.0	-1.0	-1.0	-1.0	-1.0	0.0	marker	peace	Peace	22	0418
-68052.015	-54711.99	-104298.705	-18359.505	0.0	0.0	0.0	0.0	0.0	0.0	0.0	0.0	0.0	0.0	0.0	0.0	0.0	0.0	146.0	0.0	0.045837285	-0.0683592	1.02770733	3.02148	-2.2127	-1.0682	3273528.0	1776544937.380506	0.0	1.0	-1.0	-1.0	-1.0	-1.0	-1.0	-1.0	-1.0	-1.0	0.0	marker	peace	Peace	22	0418
-68062.41	-54705.735	-104277.87	-18343.53	0.0	0.0	0.0	0.0	0.0	0.0	0.0	0.0	0.0	0.0	0.0	0.0	0.0	0.0	146.0	0.0	0.045837285	-0.0683592	1.02770733	3.02148	-2.2127	-1.0682	3273529.0	1776544937.380542	0.0	1.0	-1.0	-1.0	-1.0	-1.0	-1.0	-1.0	-1.0	-1.0	0.0	marker	peace	Peace	22	0418
-68042.565	-54633.375	-104295.69	-18356.265	0.0	0.0	0.0	0.0	0.0	0.0	0.0	0.0	0.0	0.0	0.0	0.0	0.0	0.0	146.0	0.0	0.05310045	-0.06677229	1.024716615	3.25038	-2.35004	-0.50358	3273530.0	1776544937.3845	0.0	1.0	-1.0	-1.0	-1.0	-1.0	-1.0	-1.0	-1.0	-1.0	0.0	marker	peace	Peace	22	0418
-68025.78	-54574.515	-104307.93	-18373.5	0.0	0.0	0.0	0.0	0.0	0.0	0.0	0.0	0.0	0.0	0.0	0.0	0.0	0.0	146.0	0.0	0.05310045	-0.06677229	1.024716615	3.25038	-2.35004	-0.50358	3273531.0	1776544937.384515	0.0	1.0	-1.0	-1.0	-1.0	-1.0	-1.0	-1.0	-1.0	-1.0	0.0	marker	peace	Peace	22	0418
-68045.985	-54564.57	-104268.87	-18378.315	0.0	0.0	0.0	0.0	0.0	0.0	0.0	0.0	0.0	0.0	0.0	0.0	0.0	0.0	146.0	0.0	0.05310045	-0.06677229	1.024716615	3.25038	-2.35004	-0.50358	3273532.0	1776544937.388488	0.0	1.0	-1.0	-1.0	-1.0	-1.0	-1.0	-1.0	-1.0	-1.0	0.0	marker	peace	Peace	22	0418
-68025.87	-54558.27	-104287.23	-18365.579999999998	0.0	0.0	0.0	0.0	0.0	0.0	0.0	0.0	0.0	0.0	0.0	0.0	0.0	0.0	146.0	0.0	0.05310045	-0.06677229	1.024716615	3.25038	-2.35004	-0.50358	3273533.0	1776544937.388516	0.0	1.0	-1.0	-1.0	-1.0	-1.0	-1.0	-1.0	-1.0	-1.0	0.0	marker	peace	Peace	22	0418
-68031.855	-54554.265	-104317.47	-18364.005	0.0	0.0	0.0	0.0	0.0	0.0	0.0	0.0	0.0	0.0	0.0	0.0	0.0	0.0	146.0	0.0	0.05310045	-0.06677229	1.024716615	3.25038	-2.35004	-0.50358	3273534.0	1776544937.392413	0.0	1.0	-1.0	-1.0	-1.0	-1.0	-1.0	-1.0	-1.0	-1.0	0.0	marker	peace	Peace	22	0418
-68016.33	-54547.965	-104283.495	-18336.42	0.0	0.0	0.0	0.0	0.0	0.0	0.0	0.0	0.0	0.0	0.0	0.0	0.0	0.0	146.0	0.0	0.05310045	-0.06677229	1.024716615	3.25038	-2.35004	-0.50358	3273535.0	1776544937.392426	0.0	1.0	-1.0	-1.0	-1.0	-1.0	-1.0	-1.0	-1.0	-1.0	0.0	marker	peace	Peace	22	0418
-68004.045	-54547.064999999995	-104271.525	-18337.274999999998	0.0	0.0	0.0	0.0	0.0	0.0	0.0	0.0	0.0	0.0	0.0	0.0	0.0	0.0	146.0	0.0	0.05310045	-0.06677229	1.024716615	3.25038	-2.35004	-0.50358	3273536.0	1776544937.397241	0.0	1.0	-1.0	-1.0	-1.0	-1.0	-1.0	-1.0	-1.0	-1.0	0.0	marker	peace	Peace	22	0418
-68072.94	-54558.09	-104347.75499999999	-18405.945	0.0	0.0	0.0	0.0	0.0	0.0	0.0	0.0	0.0	0.0	0.0	0.0	0.0	0.0	146.0	0.0	0.05310045	-0.06677229	1.024716615	3.25038	-2.35004	-0.50358	3273537.0	1776544937.397276	0.0	1.0	-1.0	-1.0	-1.0	-1.0	-1.0	-1.0	-1.0	-1.0	0.0	marker	peace	Peace	22	0418
-68047.965	-54568.395	-104337.0	-18398.969999999998	0.0	0.0	0.0	0.0	0.0	0.0	0.0	0.0	0.0	0.0	0.0	0.0	0.0	0.0	146.0	0.0	0.05310045	-0.06677229	1.024716615	3.25038	-2.35004	-0.50358	3273538.0	1776544937.403155	0.0	1.0	-1.0	-1.0	-1.0	-1.0	-1.0	-1.0	-1.0	-1.0	0.0	marker	peace	Peace	22	0418
-68019.795	-54569.564999999995	-104282.19	-18356.715	0.0	0.0	0.0	0.0	0.0	0.0	0.0	0.0	0.0	0.0	0.0	0.0	0.0	0.0	146.0	0.0	0.05310045	-0.06677229	1.024716615	3.25038	-2.35004	-0.50358	3273539.0	1776544937.403218	0.0	1.0	-1.0	-1.0	-1.0	-1.0	-1.0	-1.0	-1.0	-1.0	0.0	marker	peace	Peace	22	0418
-68009.22	-54558.9	-104242.095	-18344.7	0.0	0.0	0.0	0.0	0.0	0.0	0.0	0.0	0.0	0.0	0.0	0.0	0.0	0.0	146.0	0.0	0.054870465	-0.06701643	1.019467605	3.15882	-2.38056	-0.77826	3273540.0	1776544937.406118	0.0	1.0	-1.0	-1.0	-1.0	-1.0	-1.0	-1.0	-1.0	-1.0	0.0	marker	peace	Peace	22	0418
