ch_0	ch_1	ch_2	ch_3	ch_4	ch_5	ch_6	ch_7	ch_8	ch_9	ch_10	ch_11	ch_12	ch_13	ch_14	ch_15	ch_16	ch_17	ch_18	ch_19	ch_20	ch_21	ch_22	ch_23	ch_24	ch_25	ch_26	timestamp	marker	ch_29	ch_30	ch_31	ch_32	ch_33	ch_34	ch_35	ch_36	ch_37	ch_38	MarkerColumn	GestureLabel	CueLabel	SampleNumber	CollectionDate
-68191.02	-55148.4	-104435.055	-18473.805	0.0	0.0	0.0	0.0	0.0	0.0	0.0	0.0	0.0	0.0	0.0	0.0	0.0	0.0	146.0	0.0	0.0573729	-0.094299075	1.01098374	2.22796	0.79352	-0.56462	3278310.0	1776544946.977316	5.0	1.0	-1.0	-1.0	-1.0	-1.0	-1.0	-1.0	-1.0	-1.0	0.0	marker	peace	Peace	23	0418
-68255.86499999999	-55155.689999999995	-104465.06999999999	-18473.895	0.0	0.0	0.0	0.0	0.0	0.0	0.0	0.0	0.0	0.0	0.0	0.0	0.0	0.0	146.0	0.0	0.0573729	-0.094299075	1.01098374	2.22796	0.79352	-0.56462	3278311.0	1776544946.977332	0.0	1.0	-1.0	-1.0	-1.0	-1.0	-1.0	-1.0	-1.0	-1.0	0.0	marker	peace	Peace	23	0418
-68257.89	-55165.454999999994	-104471.325	-18468.54	0.0	0.0	0.0	0.0	0.0	0.0	0.0	0.0	0.0	0.0	0.0	0.0	0.0	0.0	146.0	0.0	0.0573729	-0.094299075	1.01098374	2.22796	0.79352	-0.56462	3278312.0	1776544946.981269	0.0	1.0	-1.0	-1.0	-1.0	-1.0	-1.0	-1.0	-1.0	-1.0	0.0	marker	peace	Peace	23	0418
-68232.825	-55178.595	-104455.39499999999	-18452.969999999998	0.0	0.0	0.0	0.0	0.0	0.0	0.0	0.0	0.0	0.0	0.0	0.0	0.0	0.0	146.0	0.0	0.0573729	-0.094299075	1.01098374	2.22796	0.79352	-0.56462	3278313.0	1776544946.981284	0.0	1.0	-1.0	-1.0	-1.0	-1.0	-1.0	-1.0	-1.0	-1.0	0.0	marker	peace	Peace	23	0418
-68178.915	-55186.829999999994	-104427.855	-18429.93	0.0	0.0	0.0	0.0	0.0	0.0	0.0	0.0	0.0	0.0	0.0	0.0	0.0	0.0	146.0	0.0	0.0573729	-0.094299075	1.01098374	2.22796	0.79352	-0.56462	3278314.0	1776544946.985312	0.0	1.0	-1.0	-1.0	-1.0	-1.0	-1.0	-1.0	-1.0	-1.0	0.0	marker	peace	Peace	23	0418
-68159.06999999999	-55215.314999999995	-104399.37	-18420.795	0.0	0.0	0.0	0.0	0.0	0.0	0.0	0.0	0.0	0.0	0.0	0.0	0.0	0.0	146.0	0.0	0.0573729	-0.094299075	1.01098374	2.22796	0.79352	-0.56462	3278315.0	1776544946.985315	0.0	1.0	-1.0	-1.0	-1.0	-1.0	-1.0	-1.0	-1.0	-1.0	0.0	marker	peace	Peace	23	0418
-68114.295	-55219.454999999994	-104375.205	-18417.51	0.0	0.0	0.0	0.0	0.0	0.0	0.0	0.0	0.0	0.0	0.0	0.0	0.0	0.0	146.0	0.0	0.052306995	-0.091613535	1.01867415	1.9380199999999999	0.44254	-1.1444999999999999	3278316.0	1776544946.989228	0.0	1.0	-1.0	-1.0	-1.0	-1.0	-1.0	-1.0	-1.0	-1.0	0.0	marker	peace	Peace	23	0418
-68170.635	-55224.18	-104397.795	-18428.445	0.0	0.0	0.0	0.0	0.0	0.0	0.0	0.0	0.0	0.0	0.0	0.0	0.0	0.0	146.0	0.0	0.052306995	-0.091613535	1.01867415	1.9380199999999999	0.44254	-1.1444999999999999	3278317.0	1776544946.989243	0.0	1.0	-1.0	-1.0	-1.0	-1.0	-1.0	-1.0	-1.0	-1.0	0.0	marker	peace	Peace	23	0418
-68212.08	-55238.939999999995	-104451.75	-18472.68	0.0	0.0	0.0	0.0	0.0	0.0	0.0	0.0	0.0	0.0	0.0	0.0	0.0	0.0	146.0	0.0	0.052306995	-0.091613535	1.01867415	1.9380199999999999	0.44254	-1.1444999999999999	3278318.0	1776544946.99326	0.0	1.0	-1.0	-1.0	-1.0	-1.0	-1.0	-1.0	-1.0	-1.0	0.0	marker	peace	Peace	23	0418
-68211.9	-55244.564999999995	-104410.215	-18451.17	0.0	0.0	0.0	0.0	0.0	0.0	0.0	0.0	0.0	0.0	0.0	0.0	0.0	0.0	146.0	0.0	0.052306995	-0.091613535	1.01867415	1.9380199999999999	0.44254	-1.1444999999999999	3278319.0	1776544946.993275	0.0	1.0	-1.0	-1.0	-1.0	-1.0	-1.0	-1.0	-1.0	-1.0	0.0	marker	peace	Peace	23	0418
-68202.18	-55255.365	-104445.405	-18433.98	0.0	0.0	0.0	0.0	0.0	0.0	0.0	0.0	0.0	0.0	0.0	0.0	0.0	0.0	146.0	0.0	0.052306995	-0.091613535	1.01867415	1.9380199999999999	0.44254	-1.1444999999999999	3278320.0	1776544946.997298	0.0	1.0	-1.0	-1.0	-1.0	-1.0	-1.0	-1.0	-1.0	-1.0	0.0	marker	peace	Peace	23	0418
-68144.13	-55253.744999999995	-104451.525	-18409.815	0.0	0.0	0.0	0.0	0.0	0.0	0.0	0.0	0.0	0.0	0.0	0.0	0.0	0.0	146.0	0.0	0.052306995	-0.091613535	1.01867415	1.9380199999999999	0.44254	-1.1444999999999999	3278321.0	1776544946.997313	0.0	1.0	-1.0	-1.0	-1.0	-1.0	-1.0	-1.0	-1.0	-1.0	0.0	marker	peace	Peace	23	0418
-68118.03	-55247.49	-104390.37	-18402.795	0.0	0.0	0.0	0.0	0.0	0.0	0.0	0.0	0.0	0.0	0.0	0.0	0.0	0.0	146.0	0.0	0.052306995	-0.091613535	1.01867415	1.9380199999999999	0.44254	-1.1444999999999999	3278322.0	1776544947.001312	0.0	1.0	-1.0	-1.0	-1.0	-1.0	-1.0	-1.0	-1.0	-1.0	0.0	marker	peace	Peace	23	0418
-68223.78	-55227.15	-104424.48	-18464.94	0.0	0.0	0.0	0.0	0.0	0.0	0.0	0.0	0.0	0.0	0.0	0.0	0.0	0.0	146.0	0.0	0.052306995	-0.091613535	1.01867415	1.9380199999999999	0.44254	-1.1444999999999999	3278323.0	1776544947.001327	0.0	1.0	-1.0	-1.0	-1.0	-1.0	-1.0	-1.0	-1.0	-1.0	0.0	marker	peace	Peace	23	0418
-68258.83499999999	-55132.965	-104485.905	-18493.065	0.0	0.0	0.0	0.0	0.0	0.0	0.0	0.0	0.0	0.0	0.0	0.0	0.0	0.0	146.0	0.0	0.052306995	-0.091613535	1.01867415	1.9380199999999999	0.44254	-1.1444999999999999	3278324.0	1776544947.005308	0.0	1.0	-1.0	-1.0	-1.0	-1.0	-1.0	-1.0	-1.0	-1.0	0.0	marker	peace	Peace	23	0418
-68207.67	-55108.619999999995	-104501.43	-18488.969999999998	0.0	0.0	0.0	0.0	0.0	0.0	0.0	0.0	0.0	0.0	0.0	0.0	0.0	0.0	146.0	0.0	0.052306995	-0.091613535	1.01867415	1.9380199999999999	0.44254	-1.1444999999999999	3278325.0	1776544947.005322	0.0	1.0	-1.0	-1.0	-1.0	-1.0	-1.0	-1.0	-1.0	-1.0	0.0	marker	peace	Peace	23	0418
-68093.86499999999	-55105.829999999994	-104390.055	-18396.36	0.0	0.0	0.0	0.0	0.0	0.0	0.0	0.0	0.0	0.0	0.0	0.0	0.0	0.0	146.0	0.0	0.0573729	-0.09082008	1.02148176	2.1364	-0.57988	-0.62566	3278326.0	1776544947.009318	0.0	1.0	-1.0	-1.0	-1.0	-1.0	-1.0	-1.0	-1.0	-1.0	0.0	marker	peace	Peace	23	0418
-68081.94	-55104.93	-104348.295	-18385.38	0.0	0.0	0.0	0.0	0.0	0.0	0.0	0.0	0.0	0.0	0.0	0.0	0.0	0.0	146.0	0.0	0.0573729	-0.09082008	1.02148176	2.1364	-0.57988	-0.62566	3278327.0	1776544947.009332	0.0	1.0	-1.0	-1.0	-1.0	-1.0	-1.0	-1.0	-1.0	-1.0	0.0	marker	peace	Peace	23	0418
-68183.325	-55117.935	-104360.265	-18387.675	0.0	0.0	0.0	0.0	0.0	0.0	0.0	0.0	0.0	0.0	0.0	0.0	0.0	0.0	146.0	0.0	0.0573729	-0.09082008	1.02148176	2.1364	-0.57988	-0.62566	3278328.0	1776544947.013467	0.0	1.0	-1.0	-1.0	-1.0	-1.0	-1.0	-1.0	-1.0	-1.0	0.0	marker	peace	Peace	23	0418
-68199.165	-55128.15	-104423.12999999999	-18419.895	0.0	0.0	0.0	0.0	0.0	0.0	0.0	0.0	0.0	0.0	0.0	0.0	0.0	0.0	146.0	0.0	0.0573729	-0.09082008	1.02148176	2.1364	-0.57988	-0.62566	3278329.0	1776544947.013482	0.0	1.0	-1.0	-1.0	-1.0	-1.0	-1.0	-1.0	-1.0	-1.0	0.0	marker	peace	Peace	23	0418
-68159.16	-55126.979999999996	-104437.53	-18427.77	0.0	0.0	0.0	0.0	0.0	0.0	0.0	0.0	0.0	0.0	0.0	0.0	0.0	0.0	146.0	0.0	0.0573729	-0.09082008	1.02148176	2.1364	-0.57988	-0.62566	3278330.0	1776544947.017371	0.0	1.0	-1.0	-1.0	-1.0	-1.0	-1.0	-1.0	-1.0	-1.0	0.0	marker	peace	Peace	23	0418
-68210.145	-55115.82	-104473.485	-18477.045	0.0	0.0	0.0	0.0	0.0	0.0	0.0	0.0	0.0	0.0	0.0	0.0	0.0	0.0	146.0	0.0	0.0573729	-0.09082008	1.02148176	2.1364	-0.57988	-0.62566	3278331.0	1776544947.017385	0.0	1.0	-1.0	-1.0	-1.0	-1.0	-1.0	-1.0	-1.0	-1.0	0.0	marker	peace	Peace	23	0418
-68243.895	-55101.104999999996	-104504.94	-18511.829999999998	0.0	0.0	0.0	0.0	0.0	0.0	0.0	0.0	0.0	0.0	0.0	0.0	0.0	0.0	146.0	0.0	0.0573729	-0.09082008	1.02148176	2.1364	-0.57988	-0.62566	3278332.0	1776544947.023004	0.0	1.0	-1.0	-1.0	-1.0	-1.0	-1.0	-1.0	-1.0	-1.0	0.0	marker	peace	Peace	23	0418
-68283.54	-55094.265	-104518.125	-18515.79	0.0	0.0	0.0	0.0	0.0	0.0	0.0	0.0	0.0	0.0	0.0	0.0	0.0	0.0	146.0	0.0	0.0573729	-0.09082008	1.02148176	2.1364	-0.57988	-0.62566	3278333.0	1776544947.023018	0.0	1.0	-1.0	-1.0	-1.0	-1.0	-1.0	-1.0	-1.0	-1.0	0.0	marker	peace	Peace	23	0418
-68175.315	-55083.24	-104420.79	-18428.445	0.0	0.0	0.0	0.0	0.0	0.0	0.0	0.0	0.0	0.0	0.0	0.0	0.0	0.0	146.0	0.0	0.0573729	-0.09082008	1.02148176	2.1364	-0.57988	-0.62566	3278334.0	1776544947.025856	0.0	1.0	-1.0	-1.0	-1.0	-1.0	-1.0	-1.0	-1.0	-1.0	0.0	marker	peace	Peace	23	0418
-68189.84999999999	-55080.36	-104444.73	-18453.555	0.0	0.0	0.0	0.0	0.0	0.0	0.0	0.0	0.0	0.0	0.0	0.0	0.0	0.0	146.0	0.0	0.0573729	-0.09082008	1.02148176	2.1364	-0.57988	-0.62566	3278335.0	1776544947.02587	0.0	1.0	-1.0	-1.0	-1.0	-1.0	-1.0	-1.0	-1.0	-1.0	0.0	marker	peace	Peace	23	0418
-68121.27	-55089.0	-104392.125	-18418.815	0.0	0.0	0.0	0.0	0.0	0.0	0.0	0.0	0.0	0.0	0.0	0.0	0.0	0.0	146.0	0.0	0.05798325	-0.09326148000000001	1.017148275	4.16598	-0.57988	-1.2818399999999999	3278336.0	1776544947.032006	0.0	1.0	-1.0	-1.0	-1.0	-1.0	-1.0	-1.0	-1.0	-1.0	0.0	marker	peace	Peace	23	0418
-68147.64	-55102.68	-104388.435	-18402.704999999998	0.0	0.0	0.0	0.0	0.0	0.0	0.0	0.0	0.0	0.0	0.0	0.0	0.0	0.0	146.0	0.0	0.05798325	-0.09326148000000001	1.017148275	4.16598	-0.57988	-1.2818399999999999	3278337.0	1776544947.032021	0.0	1.0	-1.0	-1.0	-1.0	-1.0	-1.0	-1.0	-1.0	-1.0	0.0	marker	peace	Peace	23	0418
-68187.78	-55112.715	-104406.075	-18414.495	0.0	0.0	0.0	0.0	0.0	0.0	0.0	0.0	0.0	0.0	0.0	0.0	0.0	0.0	146.0	0.0	0.05798325	-0.09326148000000001	1.017148275	4.16598	-0.57988	-1.2818399999999999	3278338.0	1776544947.034997	0.0	1.0	-1.0	-1.0	-1.0	-1.0	-1.0	-1.0	-1.0	-1.0	0.0	marker	peace	Peace	23	0418
-68227.47	-55113.299999999996	-104437.53	-18460.215	0.0	0.0	0.0	0.0	0.0	0.0	0.0	0.0	0.0	0.0	0.0	0.0	0.0	0.0	146.0	0.0	0.05798325	-0.09326148000000001	1.017148275	4.16598	-0.57988	-1.2818399999999999	3278339.0	1776544947.035011	0.0	1.0	-1.0	-1.0	-1.0	-1.0	-1.0	-1.0	-1.0	-1.0	0.0	marker	peace	Peace	23	0418
-68244.20999999999	-55106.145	-104463.94499999999	-18494.954999999998	0.0	0.0	0.0	0.0	0.0	0.0	0.0	0.0	0.0	0.0	0.0	0.0	0.0	0.0	146.0	0.0	0.05798325	-0.09326148000000001	1.017148275	4.16598	-0.57988	-1.2818399999999999	3278340.0	1776544947.037369	0.0	1.0	-1.0	-1.0	-1.0	-1.0	-1.0	-1.0	-1.0	-1.0	0.0	marker	peace	Peace	23	0418
-68224.995	-55084.95	-104456.83499999999	-18479.25	0.0	0.0	0.0	0.0	0.0	0.0	0.0	0.0	0.0	0.0	0.0	0.0	0.0	0.0	146.0	0.0	0.05798325	-0.09326148000000001	1.017148275	4.16598	-0.57988	-1.2818399999999999	3278341.0	1776544947.037383	0.0	1.0	-1.0	-1.0	-1.0	-1.0	-1.0	-1.0	-1.0	-1.0	0.0	marker	peace	Peace	23	0418
-68215.905	-55072.439999999995	-104451.435	-18457.245	0.0	0.0	0.0	0.0	0.0	0.0	0.0	0.0	0.0	0.0	0.0	0.0	0.0	0.0	146.0	0.0	0.05798325	-0.09326148000000001	1.017148275	4.16598	-0.57988	-1.2818399999999999	3278342.0	1776544947.041472	0.0	1.0	-1.0	-1.0	-1.0	-1.0	-1.0	-1.0	-1.0	-1.0	0.0	marker	peace	Peace	23	0418
-68208.075	-55070.865	-104443.37999999999	-18462.69	0.0	0.0	0.0	0.0	0.0	0.0	0.0	0.0	0.0	0.0	0.0	0.0	0.0	0.0	146.0	0.0	0.05798325	-0.09326148000000001	1.017148275	4.16598	-0.57988	-1.2818399999999999	3278343.0	1776544947.041486	0.0	1.0	-1.0	-1.0	-1.0	-1.0	-1.0	-1.0	-1.0	-1.0	0.0	marker	peace	Peace	23	0418
-68198.94	-55075.095	-104432.48999999999	-18461.7	0.0	0.0	0.0	0.0	0.0	0.0	0.0	0.0	0.0	0.0	0.0	0.0	0.0	0.0	146.0	0.0	0.05798325	-0.09326148000000001	1.017148275	4.16598	-0.57988	-1.2818399999999999	3278344.0	1776544947.045385	0.0	1.0	-1.0	-1.0	-1.0	-1.0	-1.0	-1.0	-1.0	-1.0	0.0	marker	peace	Peace	23	0418
-68190.66	-55081.17	-104443.69499999999	-18458.325	0.0	0.0	0.0	0.0	0.0	0.0	0.0	0.0	0.0	0.0	0.0	0.0	0.0	0.0	146.0	0.0	0.05798325	-0.09326148000000001	1.017148275	4.16598	-0.57988	-1.2818399999999999	3278345.0	1776544947.0454	0.0	1.0	-1.0	-1.0	-1.0	-1.0	-1.0	-1.0	-1.0	-1.0	0.0	marker	peace	Peace	23	0418
-68192.81999999999	-55092.15	-104446.8	-18450.54	0.0	0.0	0.0	0.0	0.0	0.0	0.0	0.0	0.0	0.0	0.0	0.0	0.0	0.0	146.0	0.0	0.060973965	-0.093200445	1.0119603	4.0896799999999995	-0.15259999999999999	-1.0682	3278346.0	1776544947.049454	0.0	1.0	-1.0	-1.0	-1.0	-1.0	-1.0	-1.0	-1.0	-1.0	0.0	marker	peace	Peace	23	0418
-68166.09	-55096.829999999994	-104416.29	-18450.225	0.0	0.0	0.0	0.0	0.0	0.0	0.0	0.0	0.0	0.0	0.0	0.0	0.0	0.0	146.0	0.0	0.060973965	-0.093200445	1.0119603	4.0896799999999995	-0.15259999999999999	-1.0682	3278347.0	1776544947.049469	0.0	1.0	-1.0	-1.0	-1.0	-1.0	-1.0	-1.0	-1.0	-1.0	0.0	marker	peace	Peace	23	0418
-68183.37	-55084.005	-104411.79	-18435.105	0.0	0.0	0.0	0.0	0.0	0.0	0.0	0.0	0.0	0.0	0.0	0.0	0.0	0.0	146.0	0.0	0.060973965	-0.093200445	1.0119603	4.0896799999999995	-0.15259999999999999	-1.0682	3278348.0	1776544947.053458	0.0	1.0	-1.0	-1.0	-1.0	-1.0	-1.0	-1.0	-1.0	-1.0	0.0	marker	peace	Peace	23	0418
-68167.89	-55061.009999999995	-104394.555	-18406.665	0.0	0.0	0.0	0.0	0.0	0.0	0.0	0.0	0.0	0.0	0.0	0.0	0.0	0.0	146.0	0.0	0.060973965	-0.093200445	1.0119603	4.0896799999999995	-0.15259999999999999	-1.0682	3278349.0	1776544947.053473	0.0	1.0	-1.0	-1.0	-1.0	-1.0	-1.0	-1.0	-1.0	-1.0	0.0	marker	peace	Peace	23	0418
-68135.895	-55044.134999999995	-104399.86499999999	-18400.094999999998	0.0	0.0	0.0	0.0	0.0	0.0	0.0	0.0	0.0	0.0	0.0	0.0	0.0	0.0	146.0	0.0	0.060973965	-0.093200445	1.0119603	4.0896799999999995	-0.15259999999999999	-1.0682	3278350.0	1776544947.057379	0.0	1.0	-1.0	-1.0	-1.0	-1.0	-1.0	-1.0	-1.0	-1.0	0.0	marker	peace	Peace	23	0418
-68165.595	-55038.689999999995	-104441.265	-18477.0	0.0	0.0	0.0	0.0	0.0	0.0	0.0	0.0	0.0	0.0	0.0	0.0	0.0	0.0	146.0	0.0	0.060973965	-0.093200445	1.0119603	4.0896799999999995	-0.15259999999999999	-1.0682	3278351.0	1776544947.057394	0.0	1.0	-1.0	-1.0	-1.0	-1.0	-1.0	-1.0	-1.0	-1.0	0.0	marker	peace	Peace	23	0418
-68219.055	-55034.595	-104472.765	-18509.67	0.0	0.0	0.0	0.0	0.0	0.0	0.0	0.0	0.0	0.0	0.0	0.0	0.0	0.0	146.0	0.0	0.060973965	-0.093200445	1.0119603	4.0896799999999995	-0.15259999999999999	-1.0682	3278352.0	1776544947.061414	0.0	1.0	-1.0	-1.0	-1.0	-1.0	-1.0	-1.0	-1.0	-1.0	0.0	marker	peace	Peace	23	0418
-68180.22	-55031.67	-104406.20999999999	-18421.605	0.0	0.0	0.0	0.0	0.0	0.0	0.0	0.0	0.0	0.0	0.0	0.0	0.0	0.0	146.0	0.0	0.060973965	-0.093200445	1.0119603	4.0896799999999995	-0.15259999999999999	-1.0682	3278353.0	1776544947.061429	0.0	1.0	-1.0	-1.0	-1.0	-1.0	-1.0	-1.0	-1.0	-1.0	0.0	marker	peace	Peace	23	0418
-68079.78	-55032.345	-104321.565	-18353.565	0.0	0.0	0.0	0.0	0.0	0.0	0.0	0.0	0.0	0.0	0.0	0.0	0.0	0.0	146.0	0.0	0.060973965	-0.093200445	1.0119603	4.0896799999999995	-0.15259999999999999	-1.0682	3278354.0	1776544947.065731	0.0	1.0	-1.0	-1.0	-1.0	-1.0	-1.0	-1.0	-1.0	-1.0	0.0	marker	peace	Peace	23	0418
-68061.465	-55031.579999999994	-104318.055	-18329.67	0.0	0.0	0.0	0.0	0.0	0.0	0.0	0.0	0.0	0.0	0.0	0.0	0.0	0.0	146.0	0.0	0.060973965	-0.093200445	1.0119603	4.0896799999999995	-0.15259999999999999	-1.0682	3278355.0	1776544947.065746	0.0	1.0	-1.0	-1.0	-1.0	-1.0	-1.0	-1.0	-1.0	-1.0	0.0	marker	peace	Peace	23	0418
-68219.505	-55033.38	-104460.56999999999	-18446.579999999998	0.0	0.0	0.0	0.0	0.0	0.0	0.0	0.0	0.0	0.0	0.0	0.0	0.0	0.0	146.0	0.0	0.056213235	-0.08703591000000001	1.01513412	2.33478	-0.21364	-0.48832	3278356.0	1776544947.070624	0.0	1.0	-1.0	-1.0	-1.0	-1.0	-1.0	-1.0	-1.0	-1.0	0.0	marker	peace	Peace	23	0418
-68236.965	-55023.75	-104472.495	-18483.12	0.0	0.0	0.0	0.0	0.0	0.0	0.0	0.0	0.0	0.0	0.0	0.0	0.0	0.0	146.0	0.0	0.056213235	-0.08703591000000001	1.01513412	2.33478	-0.21364	-0.48832	3278357.0	1776544947.070629	0.0	1.0	-1.0	-1.0	-1.0	-1.0	-1.0	-1.0	-1.0	-1.0	0.0	marker	peace	Peace	23	0418
-68190.345	-55013.805	-104377.86	-18429.48	0.0	0.0	0.0	0.0	0.0	0.0	0.0	0.0	0.0	0.0	0.0	0.0	0.0	0.0	146.0	0.0	0.056213235	-0.08703591000000001	1.01513412	2.33478	-0.21364	-0.48832	3278358.0	1776544947.073418	0.0	1.0	-1.0	-1.0	-1.0	-1.0	-1.0	-1.0	-1.0	-1.0	0.0	marker	peace	Peace	23	0418
-68257.665	-55016.145	-104465.97	-18514.98	0.0	0.0	0.0	0.0	0.0	0.0	0.0	0.0	0.0	0.0	0.0	0.0	0.0	0.0	146.0	0.0	0.056213235	-0.08703591000000001	1.01513412	2.33478	-0.21364	-0.48832	3278359.0	1776544947.073432	0.0	1.0	-1.0	-1.0	-1.0	-1.0	-1.0	-1.0	-1.0	-1.0	0.0	marker	peace	Peace	23	0418
-68274.495	-55013.67	-104548.095	-18528.434999999998	0.0	0.0	0.0	0.0	0.0	0.0	0.0	0.0	0.0	0.0	0.0	0.0	0.0	0.0	146.0	0.0	0.056213235	-0.08703591000000001	1.01513412	2.33478	-0.21364	-0.48832	3278360.0	1776544947.077493	0.0	1.0	-1.0	-1.0	-1.0	-1.0	-1.0	-1.0	-1.0	-1.0	0.0	marker	peace	Peace	23	0418
-68226.03	-55008.09	-104483.47499999999	-18479.88	0.0	0.0	0.0	0.0	0.0	0.0	0.0	0.0	0.0	0.0	0.0	0.0	0.0	0.0	146.0	0.0	0.056213235	-0.08703591000000001	1.01513412	2.33478	-0.21364	-0.48832	3278361.0	1776544947.077516	0.0	1.0	-1.0	-1.0	-1.0	-1.0	-1.0	-1.0	-1.0	-1.0	0.0	marker	peace	Peace	23	0418
-68194.98	-55002.645	-104444.775	-18460.755	0.0	0.0	0.0	0.0	0.0	0.0	0.0	0.0	0.0	0.0	0.0	0.0	0.0	0.0	146.0	0.0	0.056213235	-0.08703591000000001	1.01513412	2.33478	-0.21364	-0.48832	3278362.0	1776544947.081547	0.0	1.0	-1.0	-1.0	-1.0	-1.0	-1.0	-1.0	-1.0	-1.0	0.0	marker	peace	Peace	23	0418
-68193.63	-54998.369999999995	-104424.25499999999	-18437.715	0.0	0.0	0.0	0.0	0.0	0.0	0.0	0.0	0.0	0.0	0.0	0.0	0.0	0.0	146.0	0.0	0.056213235	-0.08703591000000001	1.01513412	2.33478	-0.21364	-0.48832	3278363.0	1776544947.081562	0.0	1.0	-1.0	-1.0	-1.0	-1.0	-1.0	-1.0	-1.0	-1.0	0.0	marker	peace	Peace	23	0418
-68186.34	-54999.0	-104396.31	-18422.505	0.0	0.0	0.0	0.0	0.0	0.0	0.0	0.0	0.0	0.0	0.0	0.0	0.0	0.0	146.0	0.0	0.056213235	-0.08703591000000001	1.01513412	2.33478	-0.21364	-0.48832	3278364.0	1776544947.088943	0.0	1.0	-1.0	-1.0	-1.0	-1.0	-1.0	-1.0	-1.0	-1.0	0.0	marker	peace	Peace	23	0418
-68197.635	-54989.865	-104421.465	-18448.559999999998	0.0	0.0	0.0	0.0	0.0	0.0	0.0	0.0	0.0	0.0	0.0	0.0	0.0	0.0	146.0	0.0	0.056213235	-0.08703591000000001	1.01513412	2.33478	-0.21364	-0.48832	3278365.0	1776544947.088957	0.0	1.0	-1.0	-1.0	-1.0	-1.0	-1.0	-1.0	-1.0	-1.0	0.0	marker	peace	Peace	23	0418
-68227.33499999999	-54983.43	-104476.59	-18468.54	0.0	0.0	0.0	0.0	0.0	0.0	0.0	0.0	0.0	0.0	0.0	0.0	0.0	0.0	146.0	0.0	0.057800145000000004	-0.084899685	1.01086167	2.39582	0.2289	-0.6103999999999999	3278366.0	1776544947.089639	0.0	1.0	-1.0	-1.0	-1.0	-1.0	-1.0	-1.0	-1.0	-1.0	0.0	marker	peace	Peace	23	0418
-68188.23	-54978.659999999996	-104461.47	-18452.07	0.0	0.0	0.0	0.0	0.0	0.0	0.0	0.0	0.0	0.0	0.0	0.0	0.0	0.0	146.0	0.0	0.057800145000000004	-0.084899685	1.01086167	2.39582	0.2289	-0.6103999999999999	3278367.0	1776544947.089654	0.0	1.0	-1.0	-1.0	-1.0	-1.0	-1.0	-1.0	-1.0	-1.0	0.0	marker	peace	Peace	23	0418
-68127.705	-54981.09	-104441.04	-18426.239999999998	0.0	0.0	0.0	0.0	0.0	0.0	0.0	0.0	0.0	0.0	0.0	0.0	0.0	0.0	146.0	0.0	0.057800145000000004	-0.084899685	1.01086167	2.39582	0.2289	-0.6103999999999999	3278368.0	1776544947.097647	0.0	1.0	-1.0	-1.0	-1.0	-1.0	-1.0	-1.0	-1.0	-1.0	0.0	marker	peace	Peace	23	0418
-68180.13	-54980.46	-104455.39499999999	-18449.73	0.0	0.0	0.0	0.0	0.0	0.0	0.0	0.0	0.0	0.0	0.0	0.0	0.0	0.0	146.0	0.0	0.057800145000000004	-0.084899685	1.01086167	2.39582	0.2289	-0.6103999999999999	3278369.0	1776544947.097662	0.0	1.0	-1.0	-1.0	-1.0	-1.0	-1.0	-1.0	-1.0	-1.0	0.0	marker	peace	Peace	23	0418
-68154.66	-54979.875	-104390.81999999999	-18417.465	0.0	0.0	0.0	0.0	0.0	0.0	0.0	0.0	0.0	0.0	0.0	0.0	0.0	0.0	146.0	0.0	0.057800145000000004	-0.084899685	1.01086167	2.39582	0.2289	-0.6103999999999999	3278370.0	1776544947.097676	0.0	1.0	-1.0	-1.0	-1.0	-1.0	-1.0	-1.0	-1.0	-1.0	0.0	marker	peace	Peace	23	0418
-68047.29	-54965.655	-104277.42	-18302.265	0.0	0.0	0.0	0.0	0.0	0.0	0.0	0.0	0.0	0.0	0.0	0.0	0.0	0.0	146.0	0.0	0.057800145000000004	-0.084899685	1.01086167	2.39582	0.2289	-0.6103999999999999	3278371.0	1776544947.097682	0.0	1.0	-1.0	-1.0	-1.0	-1.0	-1.0	-1.0	-1.0	-1.0	0.0	marker	peace	Peace	23	0418
-67907.83499999999	-54943.424999999996	-104170.455	-18199.665	0.0	0.0	0.0	0.0	0.0	0.0	0.0	0.0	0.0	0.0	0.0	0.0	0.0	0.0	146.0	0.0	0.057800145000000004	-0.084899685	1.01086167	2.39582	0.2289	-0.6103999999999999	3278372.0	1776544947.101758	0.0	1.0	-1.0	-1.0	-1.0	-1.0	-1.0	-1.0	-1.0	-1.0	0.0	marker	peace	Peace	23	0418
-68279.22	-54950.4	-104495.12999999999	-18498.78	0.0	0.0	0.0	0.0	0.0	0.0	0.0	0.0	0.0	0.0	0.0	0.0	0.0	0.0	146.0	0.0	0.057800145000000004	-0.084899685	1.01086167	2.39582	0.2289	-0.6103999999999999	3278373.0	1776544947.101773	0.0	1.0	-1.0	-1.0	-1.0	-1.0	-1.0	-1.0	-1.0	-1.0	0.0	marker	peace	Peace	23	0418
-68372.64	-54945.54	-104574.28499999999	-18583.605	0.0	0.0	0.0	0.0	0.0	0.0	0.0	0.0	0.0	0.0	0.0	0.0	0.0	0.0	146.0	0.0	0.057800145000000004	-0.084899685	1.01086167	2.39582	0.2289	-0.6103999999999999	3278374.0	1776544947.105689	0.0	1.0	-1.0	-1.0	-1.0	-1.0	-1.0	-1.0	-1.0	-1.0	0.0	marker	peace	Peace	23	0418
-68257.89	-54932.805	-104476.36499999999	-18518.489999999998	0.0	0.0	0.0	0.0	0.0	0.0	0.0	0.0	0.0	0.0	0.0	0.0	0.0	0.0	146.0	0.0	0.057800145000000004	-0.084899685	1.01086167	2.39582	0.2289	-0.6103999999999999	3278375.0	1776544947.105703	0.0	1.0	-1.0	-1.0	-1.0	-1.0	-1.0	-1.0	-1.0	-1.0	0.0	marker	peace	Peace	23	0418
-68191.515	-54922.5	-104402.83499999999	-18444.555	0.0	0.0	0.0	0.0	0.0	0.0	0.0	0.0	0.0	0.0	0.0	0.0	0.0	0.0	146.0	0.0	0.06152328	-0.086730735	1.01305893	2.8078399999999997	0.32045999999999997	0.51884	3278376.0	1776544947.109721	0.0	1.0	-1.0	-1.0	-1.0	-1.0	-1.0	-1.0	-1.0	-1.0	0.0	marker	peace	Peace	23	0418
-68254.065	-54931.365	-104502.78	-18509.445	0.0	0.0	0.0	0.0	0.0	0.0	0.0	0.0	0.0	0.0	0.0	0.0	0.0	0.0	146.0	0.0	0.06152328	-0.086730735	1.01305893	2.8078399999999997	0.32045999999999997	0.51884	3278377.0	1776544947.109736	0.0	1.0	-1.0	-1.0	-1.0	-1.0	-1.0	-1.0	-1.0	-1.0	0.0	marker	peace	Peace	23	0418
-68227.965	-54945.405	-104469.345	-18475.739999999998	0.0	0.0	0.0	0.0	0.0	0.0	0.0	0.0	0.0	0.0	0.0	0.0	0.0	0.0	146.0	0.0	0.06152328	-0.086730735	1.01305893	2.8078399999999997	0.32045999999999997	0.51884	3278378.0	1776544947.113749	0.0	1.0	-1.0	-1.0	-1.0	-1.0	-1.0	-1.0	-1.0	-1.0	0.0	marker	peace	Peace	23	0418
-68135.265	-54941.67	-104400.94499999999	-18391.545	0.0	0.0	0.0	0.0	0.0	0.0	0.0	0.0	0.0	0.0	0.0	0.0	0.0	0.0	146.0	0.0	0.06152328	-0.086730735	1.01305893	2.8078399999999997	0.32045999999999997	0.51884	3278379.0	1776544947.113764	0.0	1.0	-1.0	-1.0	-1.0	-1.0	-1.0	-1.0	-1.0	-1.0	0.0	marker	peace	Peace	23	0418
-68161.545	-54939.329999999994	-104426.955	-18401.265	0.0	0.0	0.0	0.0	0.0	0.0	0.0	0.0	0.0	0.0	0.0	0.0	0.0	0.0	146.0	0.0	0.06152328	-0.086730735	1.01305893	2.8078399999999997	0.32045999999999997	0.51884	3278380.0	1776544947.12001	0.0	1.0	-1.0	-1.0	-1.0	-1.0	-1.0	-1.0	-1.0	-1.0	0.0	marker	peace	Peace	23	0418
-68267.565	-54951.525	-104542.37999999999	-18531.945	0.0	0.0	0.0	0.0	0.0	0.0	0.0	0.0	0.0	0.0	0.0	0.0	0.0	0.0	146.0	0.0	0.06152328	-0.086730735	1.01305893	2.8078399999999997	0.32045999999999997	0.51884	3278381.0	1776544947.120024	0.0	1.0	-1.0	-1.0	-1.0	-1.0	-1.0	-1.0	-1.0	-1.0	0.0	marker	peace	Peace	23	0418
-68239.17	-54958.095	-104504.985	-18494.145	0.0	0.0	0.0	0.0	0.0	0.0	0.0	0.0	0.0	0.0	0.0	0.0	0.0	0.0	146.0	0.0	0.06152328	-0.086730735	1.01305893	2.8078399999999997	0.32045999999999997	0.51884	3278382.0	1776544947.121921	0.0	1.0	-1.0	-1.0	-1.0	-1.0	-1.0	-1.0	-1.0	-1.0	0.0	marker	peace	Peace	23	0418
-68193.63	-54950.13	-104449.23	-18451.89	0.0	0.0	0.0	0.0	0.0	0.0	0.0	0.0	0.0	0.0	0.0	0.0	0.0	0.0	146.0	0.0	0.06152328	-0.086730735	1.01305893	2.8078399999999997	0.32045999999999997	0.51884	3278383.0	1776544947.121935	0.0	1.0	-1.0	-1.0	-1.0	-1.0	-1.0	-1.0	-1.0	-1.0	0.0	marker	peace	Peace	23	0418
-68096.88	-54939.96	-104381.73	-18394.2	0.0	0.0	0.0	0.0	0.0	0.0	0.0	0.0	0.0	0.0	0.0	0.0	0.0	0.0	146.0	0.0	0.06152328	-0.086730735	1.01305893	2.8078399999999997	0.32045999999999997	0.51884	3278384.0	1776544947.128328	0.0	1.0	-1.0	-1.0	-1.0	-1.0	-1.0	-1.0	-1.0	-1.0	0.0	marker	peace	Peace	23	0418
-68029.02	-54937.305	-104326.56	-18348.66	0.0	0.0	0.0	0.0	0.0	0.0	0.0	0.0	0.0	0.0	0.0	0.0	0.0	0.0	146.0	0.0	0.06152328	-0.086730735	1.01305893	2.8078399999999997	0.32045999999999997	0.51884	3278385.0	1776544947.128342	0.0	1.0	-1.0	-1.0	-1.0	-1.0	-1.0	-1.0	-1.0	-1.0	0.0	marker	peace	Peace	23	0418
-68217.20999999999	-54952.38	-104451.93	-18444.329999999998	0.0	0.0	0.0	0.0	0.0	0.0	0.0	0.0	0.0	0.0	0.0	0.0	0.0	0.0	146.0	0.0	0.060607755	-0.09069801	1.00964097	3.2198599999999997	0.8392999999999999	-0.71722	3278386.0	1776544947.131529	0.0	1.0	-1.0	-1.0	-1.0	-1.0	-1.0	-1.0	-1.0	-1.0	0.0	marker	peace	Peace	23	0418
-68288.355	-54968.49	-104518.125	-18504.63	0.0	0.0	0.0	0.0	0.0	0.0	0.0	0.0	0.0	0.0	0.0	0.0	0.0	0.0	146.0	0.0	0.060607755	-0.09069801	1.00964097	3.2198599999999997	0.8392999999999999	-0.71722	3278387.0	1776544947.131543	0.0	1.0	-1.0	-1.0	-1.0	-1.0	-1.0	-1.0	-1.0	-1.0	0.0	marker	peace	Peace	23	0418
-68159.79	-54969.615	-104415.165	-18435.329999999998	0.0	0.0	0.0	0.0	0.0	0.0	0.0	0.0	0.0	0.0	0.0	0.0	0.0	0.0	146.0	0.0	0.060607755	-0.09069801	1.00964097	3.2198599999999997	0.8392999999999999	-0.71722	3278388.0	1776544947.134458	0.0	1.0	-1.0	-1.0	-1.0	-1.0	-1.0	-1.0	-1.0	-1.0	0.0	marker	peace	Peace	23	0418
-68164.515	-54971.505	-104402.25	-18421.559999999998	0.0	0.0	0.0	0.0	0.0	0.0	0.0	0.0	0.0	0.0	0.0	0.0	0.0	0.0	146.0	0.0	0.060607755	-0.09069801	1.00964097	3.2198599999999997	0.8392999999999999	-0.71722	3278389.0	1776544947.134473	0.0	1.0	-1.0	-1.0	-1.0	-1.0	-1.0	-1.0	-1.0	-1.0	0.0	marker	peace	Peace	23	0418
-68248.215	-54975.465	-104465.295	-18469.844999999998	0.0	0.0	0.0	0.0	0.0	0.0	0.0	0.0	0.0	0.0	0.0	0.0	0.0	0.0	146.0	0.0	0.060607755	-0.09069801	1.00964097	3.2198599999999997	0.8392999999999999	-0.71722	3278390.0	1776544947.137851	0.0	1.0	-1.0	-1.0	-1.0	-1.0	-1.0	-1.0	-1.0	-1.0	0.0	marker	peace	Peace	23	0418
-68228.81999999999	-54980.145	-104475.015	-18479.655	0.0	0.0	0.0	0.0	0.0	0.0	0.0	0.0	0.0	0.0	0.0	0.0	0.0	0.0	146.0	0.0	0.060607755	-0.09069801	1.00964097	3.2198599999999997	0.8392999999999999	-0.71722	3278391.0	1776544947.13786	0.0	1.0	-1.0	-1.0	-1.0	-1.0	-1.0	-1.0	-1.0	-1.0	0.0	marker	peace	Peace	23	0418
-68236.47	-54988.829999999994	-104475.19499999999	-18479.925	0.0	0.0	0.0	0.0	0.0	0.0	0.0	0.0	0.0	0.0	0.0	0.0	0.0	0.0	146.0	0.0	0.060607755	-0.09069801	1.00964097	3.2198599999999997	0.8392999999999999	-0.71722	3278392.0	1776544947.141863	0.0	1.0	-1.0	-1.0	-1.0	-1.0	-1.0	-1.0	-1.0	-1.0	0.0	marker	peace	Peace	23	0418
-68213.43	-54988.515	-104460.705	-18474.03	0.0	0.0	0.0	0.0	0.0	0.0	0.0	0.0	0.0	0.0	0.0	0.0	0.0	0.0	146.0	0.0	0.060607755	-0.09069801	1.00964097	3.2198599999999997	0.8392999999999999	-0.71722	3278393.0	1776544947.141883	0.0	1.0	-1.0	-1.0	-1.0	-1.0	-1.0	-1.0	-1.0	-1.0	0.0	marker	peace	Peace	23	0418
-68172.075	-54982.619999999995	-104419.44	-18441.135	0.0	0.0	0.0	0.0	0.0	0.0	0.0	0.0	0.0	0.0	0.0	0.0	0.0	0.0	146.0	0.0	0.060607755	-0.09069801	1.00964097	3.2198599999999997	0.8392999999999999	-0.71722	3278394.0	1776544947.145785	0.0	1.0	-1.0	-1.0	-1.0	-1.0	-1.0	-1.0	-1.0	-1.0	0.0	marker	peace	Peace	23	0418
-68099.22	-54977.85	-104367.825	-18381.42	0.0	0.0	0.0	0.0	0.0	0.0	0.0	0.0	0.0	0.0	0.0	0.0	0.0	0.0	146.0	0.0	0.060607755	-0.09069801	1.00964097	3.2198599999999997	0.8392999999999999	-0.71722	3278395.0	1776544947.145804	0.0	1.0	-1.0	-1.0	-1.0	-1.0	-1.0	-1.0	-1.0	-1.0	0.0	marker	peace	Peace	23	0418
-68088.95999999999	-54975.24	-104334.525	-18346.77	0.0	0.0	0.0	0.0	0.0	0.0	0.0	0.0	0.0	0.0	0.0	0.0	0.0	0.0	146.0	0.0	0.06506331	-0.091735605	1.00671129	2.9451799999999997	1.2055399999999998	0.39676	3278396.0	1776544947.154087	0.0	1.0	-1.0	-1.0	-1.0	-1.0	-1.0	-1.0	-1.0	-1.0	0.0	marker	peace	Peace	23	0418
-68187.465	-54985.86	-104418.94499999999	-18428.085	0.0	0.0	0.0	0.0	0.0	0.0	0.0	0.0	0.0	0.0	0.0	0.0	0.0	0.0	146.0	0.0	0.06506331	-0.091735605	1.00671129	2.9451799999999997	1.2055399999999998	0.39676	3278397.0	1776544947.154114	0.0	1.0	-1.0	-1.0	-1.0	-1.0	-1.0	-1.0	-1.0	-1.0	0.0	marker	peace	Peace	23	0418
-68235.255	-54994.32	-104456.565	-18493.245	0.0	0.0	0.0	0.0	0.0	0.0	0.0	0.0	0.0	0.0	0.0	0.0	0.0	0.0	146.0	0.0	0.06506331	-0.091735605	1.00671129	2.9451799999999997	1.2055399999999998	0.39676	3278398.0	1776544947.154147	0.0	1.0	-1.0	-1.0	-1.0	-1.0	-1.0	-1.0	-1.0	-1.0	0.0	marker	peace	Peace	23	0418
-68190.97499999999	-54987.255	-104423.12999999999	-18456.93	0.0	0.0	0.0	0.0	0.0	0.0	0.0	0.0	0.0	0.0	0.0	0.0	0.0	0.0	146.0	0.0	0.06506331	-0.091735605	1.00671129	2.9451799999999997	1.2055399999999998	0.39676	3278399.0	1776544947.154155	0.0	1.0	-1.0	-1.0	-1.0	-1.0	-1.0	-1.0	-1.0	-1.0	0.0	marker	peace	Peace	23	0418
-68173.605	-54978.84	-104450.94	-18446.535	0.0	0.0	0.0	0.0	0.0	0.0	0.0	0.0	0.0	0.0	0.0	0.0	0.0	0.0	146.0	0.0	0.06506331	-0.091735605	1.00671129	2.9451799999999997	1.2055399999999998	0.39676	3278400.0	1776544947.157905	0.0	1.0	-1.0	-1.0	-1.0	-1.0	-1.0	-1.0	-1.0	-1.0	0.0	marker	peace	Peace	23	0418
-68154.255	-54979.155	-104405.4	-18428.085	0.0	0.0	0.0	0.0	0.0	0.0	0.0	0.0	0.0	0.0	0.0	0.0	0.0	0.0	146.0	0.0	0.06506331	-0.091735605	1.00671129	2.9451799999999997	1.2055399999999998	0.39676	3278401.0	1776544947.157931	0.0	1.0	-1.0	-1.0	-1.0	-1.0	-1.0	-1.0	-1.0	-1.0	0.0	marker	peace	Peace	23	0418
-68146.47	-54983.25	-104356.44	-18416.204999999998	0.0	0.0	0.0	0.0	0.0	0.0	0.0	0.0	0.0	0.0	0.0	0.0	0.0	0.0	146.0	0.0	0.06506331	-0.091735605	1.00671129	2.9451799999999997	1.2055399999999998	0.39676	3278402.0	1776544947.161806	0.0	1.0	-1.0	-1.0	-1.0	-1.0	-1.0	-1.0	-1.0	-1.0	0.0	marker	peace	Peace	23	0418
-68170.59	-54995.265	-104387.265	-18421.425	0.0	0.0	0.0	0.0	0.0	0.0	0.0	0.0	0.0	0.0	0.0	0.0	0.0	0.0	146.0	0.0	0.06506331	-0.091735605	1.00671129	2.9451799999999997	1.2055399999999998	0.39676	3278403.0	1776544947.16183	0.0	1.0	-1.0	-1.0	-1.0	-1.0	-1.0	-1.0	-1.0	-1.0	0.0	marker	peace	Peace	23	0418
-68221.665	-55012.229999999996	-104438.205	-18424.395	0.0	0.0	0.0	0.0	0.0	0.0	0.0	0.0	0.0	0.0	0.0	0.0	0.0	0.0	146.0	0.0	0.06506331	-0.091735605	1.00671129	2.9451799999999997	1.2055399999999998	0.39676	3278404.0	1776544947.165986	0.0	1.0	-1.0	-1.0	-1.0	-1.0	-1.0	-1.0	-1.0	-1.0	0.0	marker	peace	Peace	23	0418
-68169.285	-55016.954999999994	-104434.92	-18429.48	0.0	0.0	0.0	0.0	0.0	0.0	0.0	0.0	0.0	0.0	0.0	0.0	0.0	0.0	146.0	0.0	0.06506331	-0.091735605	1.00671129	2.9451799999999997	1.2055399999999998	0.39676	3278405.0	1776544947.166018	0.0	1.0	-1.0	-1.0	-1.0	-1.0	-1.0	-1.0	-1.0	-1.0	0.0	marker	peace	Peace	23	0418
-68144.58	-55008.045	-104402.025	-18410.67	0.0	0.0	0.0	0.0	0.0	0.0	0.0	0.0	0.0	0.0	0.0	0.0	0.0	0.0	146.13793103448276	0.0	0.056884620000000004	-0.0939939	1.014096525	2.8230999999999997	0.6714399999999999	-0.6867	3278406.0	1776544947.16997	0.0	1.0	-1.0	-1.0	-1.0	-1.0	-1.0	-1.0	-1.0	-1.0	0.0	marker	peace	Peace	23	0418
-68189.67	-54995.04	-104445.98999999999	-18441.945	0.0	0.0	0.0	0.0	0.0	0.0	0.0	0.0	0.0	0.0	0.0	0.0	0.0	0.0	146.13793103448276	0.0	0.056884620000000004	-0.0939939	1.014096525	2.8230999999999997	0.6714399999999999	-0.6867	3278407.0	1776544947.169997	0.0	1.0	-1.0	-1.0	-1.0	-1.0	-1.0	-1.0	-1.0	-1.0	0.0	marker	peace	Peace	23	0418
-68263.155	-54991.17	-104513.67	-18501.704999999998	0.0	0.0	0.0	0.0	0.0	0.0	0.0	0.0	0.0	0.0	0.0	0.0	0.0	0.0	146.13793103448276	0.0	0.056884620000000004	-0.0939939	1.014096525	2.8230999999999997	0.6714399999999999	-0.6867	3278408.0	1776544947.173949	0.0	1.0	-1.0	-1.0	-1.0	-1.0	-1.0	-1.0	-1.0	-1.0	0.0	marker	peace	Peace	23	0418
-68209.47	-54995.174999999996	-104483.11499999999	-18477.809999999998	0.0	0.0	0.0	0.0	0.0	0.0	0.0	0.0	0.0	0.0	0.0	0.0	0.0	0.0	146.13793103448276	0.0	0.056884620000000004	-0.0939939	1.014096525	2.8230999999999997	0.6714399999999999	-0.6867	3278409.0	1776544947.17397	0.0	1.0	-1.0	-1.0	-1.0	-1.0	-1.0	-1.0	-1.0	-1.0	0.0	marker	peace	Peace	23	0418
-68144.4	-54993.24	-104451.03	-18450.405	0.0	0.0	0.0	0.0	0.0	0.0	0.0	0.0	0.0	0.0	0.0	0.0	0.0	0.0	146.13793103448276	0.0	0.056884620000000004	-0.0939939	1.014096525	2.8230999999999997	0.6714399999999999	-0.6867	3278410.0	1776544947.177816	0.0	1.0	-1.0	-1.0	-1.0	-1.0	-1.0	-1.0	-1.0	-1.0	0.0	marker	peace	Peace	23	0418
-68111.86499999999	-54989.28	-104397.795	-18418.995	0.0	0.0	0.0	0.0	0.0	0.0	0.0	0.0	0.0	0.0	0.0	0.0	0.0	0.0	146.13793103448276	0.0	0.056884620000000004	-0.0939939	1.014096525	2.8230999999999997	0.6714399999999999	-0.6867	3278411.0	1776544947.177835	0.0	1.0	-1.0	-1.0	-1.0	-1.0	-1.0	-1.0	-1.0	-1.0	0.0	marker	peace	Peace	23	0418
-68153.22	-54987.435	-104373.045	-18385.92	0.0	0.0	0.0	0.0	0.0	0.0	0.0	0.0	0.0	0.0	0.0	0.0	0.0	0.0	146.13793103448276	0.0	0.056884620000000004	-0.0939939	1.014096525	2.8230999999999997	0.6714399999999999	-0.6867	3278412.0	1776544947.181799	0.0	1.0	-1.0	-1.0	-1.0	-1.0	-1.0	-1.0	-1.0	-1.0	0.0	marker	peace	Peace	23	0418
-68180.715	-54986.939999999995	-104397.03	-18394.695	0.0	0.0	0.0	0.0	0.0	0.0	0.0	0.0	0.0	0.0	0.0	0.0	0.0	0.0	146.13793103448276	0.0	0.056884620000000004	-0.0939939	1.014096525	2.8230999999999997	0.6714399999999999	-0.6867	3278413.0	1776544947.181812	0.0	1.0	-1.0	-1.0	-1.0	-1.0	-1.0	-1.0	-1.0	-1.0	0.0	marker	peace	Peace	23	0418
-68193.765	-54984.375	-104421.33	-18433.44	0.0	0.0	0.0	0.0	0.0	0.0	0.0	0.0	0.0	0.0	0.0	0.0	0.0	0.0	146.13793103448276	0.0	0.056884620000000004	-0.0939939	1.014096525	2.8230999999999997	0.6714399999999999	-0.6867	3278414.0	1776544947.186074	0.0	1.0	-1.0	-1.0	-1.0	-1.0	-1.0	-1.0	-1.0	-1.0	0.0	marker	peace	Peace	23	0418
-68224.95	-54972.27	-104411.7	-18459.135	0.0	0.0	0.0	0.0	0.0	0.0	0.0	0.0	0.0	0.0	0.0	0.0	0.0	0.0	146.13793103448276	0.0	0.056884620000000004	-0.0939939	1.014096525	2.8230999999999997	0.6714399999999999	-0.6867	3278415.0	1776544947.18611	0.0	1.0	-1.0	-1.0	-1.0	-1.0	-1.0	-1.0	-1.0	-1.0	0.0	marker	peace	Peace	23	0418
-68246.45999999999	-54964.845	-104430.19499999999	-18484.92	0.0	0.0	0.0	0.0	0.0	0.0	0.0	0.0	0.0	0.0	0.0	0.0	0.0	0.0	146.13793103448276	0.0	0.055236675	-0.09338355	1.01891829	2.88414	0.0	-0.82404	3278416.0	1776544947.193494	0.0	1.0	-1.0	-1.0	-1.0	-1.0	-1.0	-1.0	-1.0	-1.0	0.0	marker	peace	Peace	23	0418
-68226.165	-54960.84	-104466.87	-18477.855	0.0	0.0	0.0	0.0	0.0	0.0	0.0	0.0	0.0	0.0	0.0	0.0	0.0	0.0	146.13793103448276	0.0	0.055236675	-0.09338355	1.01891829	2.88414	0.0	-0.82404	3278417.0	1776544947.193519	0.0	1.0	-1.0	-1.0	-1.0	-1.0	-1.0	-1.0	-1.0	-1.0	0.0	marker	peace	Peace	23	0418
-68247.22499999999	-54959.445	-104473.845	-18464.355	0.0	0.0	0.0	0.0	0.0	0.0	0.0	0.0	0.0	0.0	0.0	0.0	0.0	0.0	146.13793103448276	0.0	0.055236675	-0.09338355	1.01891829	2.88414	0.0	-0.82404	3278418.0	1776544947.19382	0.0	1.0	-1.0	-1.0	-1.0	-1.0	-1.0	-1.0	-1.0	-1.0	0.0	marker	peace	Peace	23	0418
-68194.395	-54962.729999999996	-104462.73	-18442.665	0.0	0.0	0.0	0.0	0.0	0.0	0.0	0.0	0.0	0.0	0.0	0.0	0.0	0.0	146.13793103448276	0.0	0.055236675	-0.09338355	1.01891829	2.88414	0.0	-0.82404	3278419.0	1776544947.193841	0.0	1.0	-1.0	-1.0	-1.0	-1.0	-1.0	-1.0	-1.0	-1.0	0.0	marker	peace	Peace	23	0418
-68115.015	-54970.155	-104432.175	-18412.695	0.0	0.0	0.0	0.0	0.0	0.0	0.0	0.0	0.0	0.0	0.0	0.0	0.0	0.0	146.13793103448276	0.0	0.055236675	-0.09338355	1.01891829	2.88414	0.0	-0.82404	3278420.0	1776544947.198122	0.0	1.0	-1.0	-1.0	-1.0	-1.0	-1.0	-1.0	-1.0	-1.0	0.0	marker	peace	Peace	23	0418
-68134.05	-54970.92	-104407.065	-18394.29	0.0	0.0	0.0	0.0	0.0	0.0	0.0	0.0	0.0	0.0	0.0	0.0	0.0	0.0	146.13793103448276	0.0	0.055236675	-0.09338355	1.01891829	2.88414	0.0	-0.82404	3278421.0	1776544947.198152	0.0	1.0	-1.0	-1.0	-1.0	-1.0	-1.0	-1.0	-1.0	-1.0	0.0	marker	peace	Peace	23	0418
-68223.69	-54973.079999999994	-104464.08	-18474.39	0.0	0.0	0.0	0.0	0.0	0.0	0.0	0.0	0.0	0.0	0.0	0.0	0.0	0.0	146.13793103448276	0.0	0.055236675	-0.09338355	1.01891829	2.88414	0.0	-0.82404	3278422.0	1776544947.202185	0.0	1.0	-1.0	-1.0	-1.0	-1.0	-1.0	-1.0	-1.0	-1.0	0.0	marker	peace	Peace	23	0418
-68252.13	-54997.47	-104466.33	-18484.335	0.0	0.0	0.0	0.0	0.0	0.0	0.0	0.0	0.0	0.0	0.0	0.0	0.0	0.0	146.13793103448276	0.0	0.055236675	-0.09338355	1.01891829	2.88414	0.0	-0.82404	3278423.0	1776544947.202204	0.0	1.0	-1.0	-1.0	-1.0	-1.0	-1.0	-1.0	-1.0	-1.0	0.0	marker	peace	Peace	23	0418
-68211.045	-55023.84	-104421.15	-18441.585	0.0	0.0	0.0	0.0	0.0	0.0	0.0	0.0	0.0	0.0	0.0	0.0	0.0	0.0	146.13793103448276	0.0	0.055236675	-0.09338355	1.01891829	2.88414	0.0	-0.82404	3278424.0	1776544947.205972	0.0	1.0	-1.0	-1.0	-1.0	-1.0	-1.0	-1.0	-1.0	-1.0	0.0	marker	peace	Peace	23	0418
-68145.03	-55012.095	-104375.565	-18411.165	0.0	0.0	0.0	0.0	0.0	0.0	0.0	0.0	0.0	0.0	0.0	0.0	0.0	0.0	146.13793103448276	0.0	0.055236675	-0.09338355	1.01891829	2.88414	0.0	-0.82404	3278425.0	1776544947.205991	0.0	1.0	-1.0	-1.0	-1.0	-1.0	-1.0	-1.0	-1.0	-1.0	0.0	marker	peace	Peace	23	0418
-68176.98	-55008.585	-104458.23	-18452.88	0.0	0.0	0.0	0.0	0.0	0.0	0.0	0.0	0.0	0.0	0.0	0.0	0.0	0.0	146.13793103448276	0.0	0.060485685000000004	-0.09411597000000001	1.01879622	2.6857599999999997	-0.12208	-1.19028	3278426.0	1776544947.21021	0.0	1.0	-1.0	-1.0	-1.0	-1.0	-1.0	-1.0	-1.0	-1.0	0.0	marker	peace	Peace	23	0418
-68202.98999999999	-55011.509999999995	-104506.01999999999	-18484.559999999998	0.0	0.0	0.0	0.0	0.0	0.0	0.0	0.0	0.0	0.0	0.0	0.0	0.0	0.0	146.13793103448276	0.0	0.060485685000000004	-0.09411597000000001	1.01879622	2.6857599999999997	-0.12208	-1.19028	3278427.0	1776544947.210232	0.0	1.0	-1.0	-1.0	-1.0	-1.0	-1.0	-1.0	-1.0	-1.0	0.0	marker	peace	Peace	23	0418
-68163.61499999999	-55017.314999999995	-104436.405	-18437.67	0.0	0.0	0.0	0.0	0.0	0.0	0.0	0.0	0.0	0.0	0.0	0.0	0.0	0.0	146.13793103448276	0.0	0.060485685000000004	-0.09411597000000001	1.01879622	2.6857599999999997	-0.12208	-1.19028	3278428.0	1776544947.214157	0.0	1.0	-1.0	-1.0	-1.0	-1.0	-1.0	-1.0	-1.0	-1.0	0.0	marker	peace	Peace	23	0418
-68112.045	-55013.85	-104347.89	-18341.415	0.0	0.0	0.0	0.0	0.0	0.0	0.0	0.0	0.0	0.0	0.0	0.0	0.0	0.0	146.13793103448276	0.0	0.060485685000000004	-0.09411597000000001	1.01879622	2.6857599999999997	-0.12208	-1.19028	3278429.0	1776544947.214202	0.0	1.0	-1.0	-1.0	-1.0	-1.0	-1.0	-1.0	-1.0	-1.0	0.0	marker	peace	Peace	23	0418
-68040.315	-55007.145	-104307.345	-18294.48	0.0	0.0	0.0	0.0	0.0	0.0	0.0	0.0	0.0	0.0	0.0	0.0	0.0	0.0	146.13793103448276	0.0	0.060485685000000004	-0.09411597000000001	1.01879622	2.6857599999999997	-0.12208	-1.19028	3278430.0	1776544947.219362	0.0	1.0	-1.0	-1.0	-1.0	-1.0	-1.0	-1.0	-1.0	-1.0	0.0	marker	peace	Peace	23	0418
-68124.95999999999	-55014.21	-104409.405	-18408.285	0.0	0.0	0.0	0.0	0.0	0.0	0.0	0.0	0.0	0.0	0.0	0.0	0.0	0.0	146.13793103448276	0.0	0.060485685000000004	-0.09411597000000001	1.01879622	2.6857599999999997	-0.12208	-1.19028	3278431.0	1776544947.219396	0.0	1.0	-1.0	-1.0	-1.0	-1.0	-1.0	-1.0	-1.0	-1.0	0.0	marker	peace	Peace	23	0418
-68274.045	-55015.29	-104535.26999999999	-18523.71	0.0	0.0	0.0	0.0	0.0	0.0	0.0	0.0	0.0	0.0	0.0	0.0	0.0	0.0	146.13793103448276	0.0	0.060485685000000004	-0.09411597000000001	1.01879622	2.6857599999999997	-0.12208	-1.19028	3278432.0	1776544947.222019	0.0	1.0	-1.0	-1.0	-1.0	-1.0	-1.0	-1.0	-1.0	-1.0	0.0	marker	peace	Peace	23	0418
-68253.66	-55011.329999999994	-104490.405	-18476.055	0.0	0.0	0.0	0.0	0.0	0.0	0.0	0.0	0.0	0.0	0.0	0.0	0.0	0.0	146.13793103448276	0.0	0.060485685000000004	-0.09411597000000001	1.01879622	2.6857599999999997	-0.12208	-1.19028	3278433.0	1776544947.222039	0.0	1.0	-1.0	-1.0	-1.0	-1.0	-1.0	-1.0	-1.0	-1.0	0.0	marker	peace	Peace	23	0418
-68187.69	-55006.424999999996	-104438.205	-18449.594999999998	0.0	0.0	0.0	0.0	0.0	0.0	0.0	0.0	0.0	0.0	0.0	0.0	0.0	0.0	146.13793103448276	0.0	0.060485685000000004	-0.09411597000000001	1.01879622	2.6857599999999997	-0.12208	-1.19028	3278434.0	1776544947.234066	0.0	1.0	-1.0	-1.0	-1.0	-1.0	-1.0	-1.0	-1.0	-1.0	0.0	marker	peace	Peace	23	0418
-68238.98999999999	-55007.954999999994	-104485.40999999999	-18490.59	0.0	0.0	0.0	0.0	0.0	0.0	0.0	0.0	0.0	0.0	0.0	0.0	0.0	0.0	146.13793103448276	0.0	0.060485685000000004	-0.09411597000000001	1.01879622	2.6857599999999997	-0.12208	-1.19028	3278435.0	1776544947.2341	0.0	1.0	-1.0	-1.0	-1.0	-1.0	-1.0	-1.0	-1.0	-1.0	0.0	marker	peace	Peace	23	0418
-68246.775	-55016.055	-104490.98999999999	-18495.135	0.0	0.0	0.0	0.0	0.0	0.0	0.0	0.0	0.0	0.0	0.0	0.0	0.0	0.0	146.13793103448276	0.0	0.0598143	-0.094054935	1.01159409	4.0896799999999995	0.35097999999999996	-1.46496	3278436.0	1776544947.236901	0.0	1.0	-1.0	-1.0	-1.0	-1.0	-1.0	-1.0	-1.0	-1.0	0.0	marker	peace	Peace	23	0418
-68200.29	-55027.17	-104435.14499999999	-18443.969999999998	0.0	0.0	0.0	0.0	0.0	0.0	0.0	0.0	0.0	0.0	0.0	0.0	0.0	0.0	146.13793103448276	0.0	0.0598143	-0.094054935	1.01159409	4.0896799999999995	0.35097999999999996	-1.46496	3278437.0	1776544947.236923	0.0	1.0	-1.0	-1.0	-1.0	-1.0	-1.0	-1.0	-1.0	-1.0	0.0	marker	peace	Peace	23	0418
-68154.97499999999	-55034.369999999995	-104410.485	-18426.329999999998	0.0	0.0	0.0	0.0	0.0	0.0	0.0	0.0	0.0	0.0	0.0	0.0	0.0	0.0	146.13793103448276	0.0	0.0598143	-0.094054935	1.01159409	4.0896799999999995	0.35097999999999996	-1.46496	3278438.0	1776544947.236952	0.0	1.0	-1.0	-1.0	-1.0	-1.0	-1.0	-1.0	-1.0	-1.0	0.0	marker	peace	Peace	23	0418
-68176.98	-55042.244999999995	-104428.125	-18444.78	0.0	0.0	0.0	0.0	0.0	0.0	0.0	0.0	0.0	0.0	0.0	0.0	0.0	0.0	146.13793103448276	0.0	0.0598143	-0.094054935	1.01159409	4.0896799999999995	0.35097999999999996	-1.46496	3278439.0	1776544947.236963	0.0	1.0	-1.0	-1.0	-1.0	-1.0	-1.0	-1.0	-1.0	-1.0	0.0	marker	peace	Peace	23	0418
-68168.61	-55038.465	-104386.455	-18412.649999999998	0.0	0.0	0.0	0.0	0.0	0.0	0.0	0.0	0.0	0.0	0.0	0.0	0.0	0.0	146.13793103448276	0.0	0.0598143	-0.094054935	1.01159409	4.0896799999999995	0.35097999999999996	-1.46496	3278440.0	1776544947.239847	0.0	1.0	-1.0	-1.0	-1.0	-1.0	-1.0	-1.0	-1.0	-1.0	0.0	marker	peace	Peace	23	0418
-68099.31	-55027.395	-104342.84999999999	-18385.29	0.0	0.0	0.0	0.0	0.0	0.0	0.0	0.0	0.0	0.0	0.0	0.0	0.0	0.0	146.13793103448276	0.0	0.0598143	-0.094054935	1.01159409	4.0896799999999995	0.35097999999999996	-1.46496	3278441.0	1776544947.239865	0.0	1.0	-1.0	-1.0	-1.0	-1.0	-1.0	-1.0	-1.0	-1.0	0.0	marker	peace	Peace	23	0418
-68187.87	-55031.67	-104417.415	-18420.614999999998	0.0	0.0	0.0	0.0	0.0	0.0	0.0	0.0	0.0	0.0	0.0	0.0	0.0	0.0	146.13793103448276	0.0	0.0598143	-0.094054935	1.01159409	4.0896799999999995	0.35097999999999996	-1.46496	3278442.0	1776544947.242022	0.0	1.0	-1.0	-1.0	-1.0	-1.0	-1.0	-1.0	-1.0	-1.0	0.0	marker	peace	Peace	23	0418
-68214.59999999999	-55043.28	-104470.29	-18443.655	0.0	0.0	0.0	0.0	0.0	0.0	0.0	0.0	0.0	0.0	0.0	0.0	0.0	0.0	146.13793103448276	0.0	0.0598143	-0.094054935	1.01159409	4.0896799999999995	0.35097999999999996	-1.46496	3278443.0	1776544947.242046	0.0	1.0	-1.0	-1.0	-1.0	-1.0	-1.0	-1.0	-1.0	-1.0	0.0	marker	peace	Peace	23	0418
-68213.385	-55053.54	-104478.795	-18460.215	0.0	0.0	0.0	0.0	0.0	0.0	0.0	0.0	0.0	0.0	0.0	0.0	0.0	0.0	146.13793103448276	0.0	0.0598143	-0.094054935	1.01159409	4.0896799999999995	0.35097999999999996	-1.46496	3278444.0	1776544947.246422	0.0	1.0	-1.0	-1.0	-1.0	-1.0	-1.0	-1.0	-1.0	-1.0	0.0	marker	peace	Peace	23	0418
-68207.67	-55058.13	-104468.355	-18462.015	0.0	0.0	0.0	0.0	0.0	0.0	0.0	0.0	0.0	0.0	0.0	0.0	0.0	0.0	146.13793103448276	0.0	0.0598143	-0.094054935	1.01159409	4.0896799999999995	0.35097999999999996	-1.46496	3278445.0	1776544947.246466	0.0	1.0	-1.0	-1.0	-1.0	-1.0	-1.0	-1.0	-1.0	-1.0	0.0	marker	peace	Peace	23	0418
-68207.76	-55067.265	-104455.75499999999	-18451.98	0.0	0.0	0.0	0.0	0.0	0.0	0.0	0.0	0.0	0.0	0.0	0.0	0.0	0.0	146.13793103448276	0.0	0.06066879	-0.09436011	1.007748885	3.5860999999999996	0.79352	-0.74774	3278446.0	1776544947.250144	0.0	1.0	-1.0	-1.0	-1.0	-1.0	-1.0	-1.0	-1.0	-1.0	0.0	marker	peace	Peace	23	0418
-68132.88	-55070.415	-104380.155	-18394.605	0.0	0.0	0.0	0.0	0.0	0.0	0.0	0.0	0.0	0.0	0.0	0.0	0.0	0.0	146.13793103448276	0.0	0.06066879	-0.09436011	1.007748885	3.5860999999999996	0.79352	-0.74774	3278447.0	1776544947.250187	0.0	1.0	-1.0	-1.0	-1.0	-1.0	-1.0	-1.0	-1.0	-1.0	0.0	marker	peace	Peace	23	0418
-68121.27	-55072.079999999994	-104386.59	-18411.075	0.0	0.0	0.0	0.0	0.0	0.0	0.0	0.0	0.0	0.0	0.0	0.0	0.0	0.0	146.13793103448276	0.0	0.06066879	-0.09436011	1.007748885	3.5860999999999996	0.79352	-0.74774	3278448.0	1776544947.25411	0.0	1.0	-1.0	-1.0	-1.0	-1.0	-1.0	-1.0	-1.0	-1.0	0.0	marker	peace	Peace	23	0418
-68213.97	-55078.74	-104477.89499999999	-18503.28	0.0	0.0	0.0	0.0	0.0	0.0	0.0	0.0	0.0	0.0	0.0	0.0	0.0	0.0	146.13793103448276	0.0	0.06066879	-0.09436011	1.007748885	3.5860999999999996	0.79352	-0.74774	3278449.0	1776544947.254141	0.0	1.0	-1.0	-1.0	-1.0	-1.0	-1.0	-1.0	-1.0	-1.0	0.0	marker	peace	Peace	23	0418
-68121.405	-55072.395	-104400.405	-18403.515	0.0	0.0	0.0	0.0	0.0	0.0	0.0	0.0	0.0	0.0	0.0	0.0	0.0	0.0	146.13793103448276	0.0	0.06066879	-0.09436011	1.007748885	3.5860999999999996	0.79352	-0.74774	3278450.0	1776544947.258113	0.0	1.0	-1.0	-1.0	-1.0	-1.0	-1.0	-1.0	-1.0	-1.0	0.0	marker	peace	Peace	23	0418
-68176.575	-55071.09	-104413.31999999999	-18413.37	0.0	0.0	0.0	0.0	0.0	0.0	0.0	0.0	0.0	0.0	0.0	0.0	0.0	0.0	146.13793103448276	0.0	0.06066879	-0.09436011	1.007748885	3.5860999999999996	0.79352	-0.74774	3278451.0	1776544947.258133	0.0	1.0	-1.0	-1.0	-1.0	-1.0	-1.0	-1.0	-1.0	-1.0	0.0	marker	peace	Peace	23	0418
-68229.63	-55077.479999999996	-104448.64499999999	-18456.614999999998	0.0	0.0	0.0	0.0	0.0	0.0	0.0	0.0	0.0	0.0	0.0	0.0	0.0	0.0	146.13793103448276	0.0	0.06066879	-0.09436011	1.007748885	3.5860999999999996	0.79352	-0.74774	3278452.0	1776544947.262147	0.0	1.0	-1.0	-1.0	-1.0	-1.0	-1.0	-1.0	-1.0	-1.0	0.0	marker	peace	Peace	23	0418
-68192.415	-55080.405	-104422.635	-18444.239999999998	0.0	0.0	0.0	0.0	0.0	0.0	0.0	0.0	0.0	0.0	0.0	0.0	0.0	0.0	146.13793103448276	0.0	0.06066879	-0.09436011	1.007748885	3.5860999999999996	0.79352	-0.74774	3278453.0	1776544947.262167	0.0	1.0	-1.0	-1.0	-1.0	-1.0	-1.0	-1.0	-1.0	-1.0	0.0	marker	peace	Peace	23	0418
-68242.5	-55078.47	-104450.31	-18464.67	0.0	0.0	0.0	0.0	0.0	0.0	0.0	0.0	0.0	0.0	0.0	0.0	0.0	0.0	146.13793103448276	0.0	0.06066879	-0.09436011	1.007748885	3.5860999999999996	0.79352	-0.74774	3278454.0	1776544947.270176	0.0	1.0	-1.0	-1.0	-1.0	-1.0	-1.0	-1.0	-1.0	-1.0	0.0	marker	peace	Peace	23	0418
-68225.44499999999	-55065.869999999995	-104433.705	-18473.895	0.0	0.0	0.0	0.0	0.0	0.0	0.0	0.0	0.0	0.0	0.0	0.0	0.0	0.0	146.13793103448276	0.0	0.06066879	-0.09436011	1.007748885	3.5860999999999996	0.79352	-0.74774	3278455.0	1776544947.270214	0.0	1.0	-1.0	-1.0	-1.0	-1.0	-1.0	-1.0	-1.0	-1.0	0.0	marker	peace	Peace	23	0418
-68170.095	-55052.64	-104367.555	-18452.34	0.0	0.0	0.0	0.0	0.0	0.0	0.0	0.0	0.0	0.0	0.0	0.0	0.0	0.0	146.13793103448276	0.0	0.056701515	-0.091369395	1.013608245	2.99096	0.763	-0.6409199999999999	3278456.0	1776544947.270246	0.0	1.0	-1.0	-1.0	-1.0	-1.0	-1.0	-1.0	-1.0	-1.0	0.0	marker	peace	Peace	23	0418
-68161.14	-55046.295	-104369.715	-18433.98	0.0	0.0	0.0	0.0	0.0	0.0	0.0	0.0	0.0	0.0	0.0	0.0	0.0	0.0	146.13793103448276	0.0	0.056701515	-0.091369395	1.013608245	2.99096	0.763	-0.6409199999999999	3278457.0	1776544947.270264	0.0	1.0	-1.0	-1.0	-1.0	-1.0	-1.0	-1.0	-1.0	-1.0	0.0	marker	peace	Peace	23	0418
-68214.87	-55048.229999999996	-104436.045	-18435.69	0.0	0.0	0.0	0.0	0.0	0.0	0.0	0.0	0.0	0.0	0.0	0.0	0.0	0.0	146.13793103448276	0.0	0.056701515	-0.091369395	1.013608245	2.99096	0.763	-0.6409199999999999	3278458.0	1776544947.274269	0.0	1.0	-1.0	-1.0	-1.0	-1.0	-1.0	-1.0	-1.0	-1.0	0.0	marker	peace	Peace	23	0418
-68202.495	-55052.055	-104438.295	-18433.215	0.0	0.0	0.0	0.0	0.0	0.0	0.0	0.0	0.0	0.0	0.0	0.0	0.0	0.0	146.13793103448276	0.0	0.056701515	-0.091369395	1.013608245	2.99096	0.763	-0.6409199999999999	3278459.0	1776544947.27429	0.0	1.0	-1.0	-1.0	-1.0	-1.0	-1.0	-1.0	-1.0	-1.0	0.0	marker	peace	Peace	23	0418
-68201.685	-55062.494999999995	-104495.67	-18456.344999999998	0.0	0.0	0.0	0.0	0.0	0.0	0.0	0.0	0.0	0.0	0.0	0.0	0.0	0.0	146.13793103448276	0.0	0.056701515	-0.091369395	1.013608245	2.99096	0.763	-0.6409199999999999	3278460.0	1776544947.278249	0.0	1.0	-1.0	-1.0	-1.0	-1.0	-1.0	-1.0	-1.0	-1.0	0.0	marker	peace	Peace	23	0418
-68226.48	-55059.255	-104505.48	-18470.7	0.0	0.0	0.0	0.0	0.0	0.0	0.0	0.0	0.0	0.0	0.0	0.0	0.0	0.0	146.13793103448276	0.0	0.056701515	-0.091369395	1.013608245	2.99096	0.763	-0.6409199999999999	3278461.0	1776544947.278273	0.0	1.0	-1.0	-1.0	-1.0	-1.0	-1.0	-1.0	-1.0	-1.0	0.0	marker	peace	Peace	23	0418
-68190.3	-55064.88	-104468.715	-18457.695	0.0	0.0	0.0	0.0	0.0	0.0	0.0	0.0	0.0	0.0	0.0	0.0	0.0	0.0	146.13793103448276	0.0	0.056701515	-0.091369395	1.013608245	2.99096	0.763	-0.6409199999999999	3278462.0	1776544947.282356	0.0	1.0	-1.0	-1.0	-1.0	-1.0	-1.0	-1.0	-1.0	-1.0	0.0	marker	peace	Peace	23	0418
-68163.03	-55058.31	-104453.81999999999	-18443.52	0.0	0.0	0.0	0.0	0.0	0.0	0.0	0.0	0.0	0.0	0.0	0.0	0.0	0.0	146.13793103448276	0.0	0.056701515	-0.091369395	1.013608245	2.99096	0.763	-0.6409199999999999	3278463.0	1776544947.282393	0.0	1.0	-1.0	-1.0	-1.0	-1.0	-1.0	-1.0	-1.0	-1.0	0.0	marker	peace	Peace	23	0418
-68193.72	-55048.994999999995	-104455.70999999999	-18421.02	0.0	0.0	0.0	0.0	0.0	0.0	0.0	0.0	0.0	0.0	0.0	0.0	0.0	0.0	146.13793103448276	0.0	0.056701515	-0.091369395	1.013608245	2.99096	0.763	-0.6409199999999999	3278464.0	1776544947.286305	0.0	1.0	-1.0	-1.0	-1.0	-1.0	-1.0	-1.0	-1.0	-1.0	0.0	marker	peace	Peace	23	0418
-68242.095	-55036.305	-104442.25499999999	-18422.864999999998	0.0	0.0	0.0	0.0	0.0	0.0	0.0	0.0	0.0	0.0	0.0	0.0	0.0	0.0	146.13793103448276	0.0	0.056701515	-0.091369395	1.013608245	2.99096	0.763	-0.6409199999999999	3278465.0	1776544947.286325	0.0	1.0	-1.0	-1.0	-1.0	-1.0	-1.0	-1.0	-1.0	-1.0	0.0	marker	peace	Peace	23	0418
-68222.745	-55031.04	-104439.825	-18445.815	0.0	0.0	0.0	0.0	0.0	0.0	0.0	0.0	0.0	0.0	0.0	0.0	0.0	0.0	146.13793103448276	0.0	0.05786118	-0.08496072	1.0194065700000001	2.5942	0.04578	-0.6409199999999999	3278466.0	1776544947.294253	0.0	1.0	-1.0	-1.0	-1.0	-1.0	-1.0	-1.0	-1.0	-1.0	0.0	marker	peace	Peace	23	0418
-68136.3	-55031.174999999996	-104400.72	-18428.489999999998	0.0	0.0	0.0	0.0	0.0	0.0	0.0	0.0	0.0	0.0	0.0	0.0	0.0	0.0	146.13793103448276	0.0	0.05786118	-0.08496072	1.0194065700000001	2.5942	0.04578	-0.6409199999999999	3278467.0	1776544947.294276	0.0	1.0	-1.0	-1.0	-1.0	-1.0	-1.0	-1.0	-1.0	-1.0	0.0	marker	peace	Peace	23	0418
-68038.515	-55042.829999999994	-104322.69	-18353.61	0.0	0.0	0.0	0.0	0.0	0.0	0.0	0.0	0.0	0.0	0.0	0.0	0.0	0.0	146.13793103448276	0.0	0.05786118	-0.08496072	1.0194065700000001	2.5942	0.04578	-0.6409199999999999	3278468.0	1776544947.294298	0.0	1.0	-1.0	-1.0	-1.0	-1.0	-1.0	-1.0	-1.0	-1.0	0.0	marker	peace	Peace	23	0418
-68098.23	-55107.405	-104340.375	-18355.184999999998	0.0	0.0	0.0	0.0	0.0	0.0	0.0	0.0	0.0	0.0	0.0	0.0	0.0	0.0	146.13793103448276	0.0	0.05786118	-0.08496072	1.0194065700000001	2.5942	0.04578	-0.6409199999999999	3278469.0	1776544947.29431	0.0	1.0	-1.0	-1.0	-1.0	-1.0	-1.0	-1.0	-1.0	-1.0	0.0	marker	peace	Peace	23	0418
-68264.685	-55134.494999999995	-104460.705	-18433.17	0.0	0.0	0.0	0.0	0.0	0.0	0.0	0.0	0.0	0.0	0.0	0.0	0.0	0.0	146.13793103448276	0.0	0.05786118	-0.08496072	1.0194065700000001	2.5942	0.04578	-0.6409199999999999	3278470.0	1776544947.300077	0.0	1.0	-1.0	-1.0	-1.0	-1.0	-1.0	-1.0	-1.0	-1.0	0.0	marker	peace	Peace	23	0418
-68189.265	-55137.195	-104469.93	-18455.265	0.0	0.0	0.0	0.0	0.0	0.0	0.0	0.0	0.0	0.0	0.0	0.0	0.0	0.0	146.13793103448276	0.0	0.05786118	-0.08496072	1.0194065700000001	2.5942	0.04578	-0.6409199999999999	3278471.0	1776544947.300116	0.0	1.0	-1.0	-1.0	-1.0	-1.0	-1.0	-1.0	-1.0	-1.0	0.0	marker	peace	Peace	23	0418
-68151.465	-55131.03	-104448.87	-18448.965	0.0	0.0	0.0	0.0	0.0	0.0	0.0	0.0	0.0	0.0	0.0	0.0	0.0	0.0	146.13793103448276	0.0	0.05786118	-0.08496072	1.0194065700000001	2.5942	0.04578	-0.6409199999999999	3278472.0	1776544947.302282	0.0	1.0	-1.0	-1.0	-1.0	-1.0	-1.0	-1.0	-1.0	-1.0	0.0	marker	peace	Peace	23	0418
-68141.205	-55118.25	-104424.03	-18439.965	0.0	0.0	0.0	0.0	0.0	0.0	0.0	0.0	0.0	0.0	0.0	0.0	0.0	0.0	146.13793103448276	0.0	0.05786118	-0.08496072	1.0194065700000001	2.5942	0.04578	-0.6409199999999999	3278473.0	1776544947.302299	0.0	1.0	-1.0	-1.0	-1.0	-1.0	-1.0	-1.0	-1.0	-1.0	0.0	marker	peace	Peace	23	0418
-68230.215	-55116.18	-104451.345	-18460.8	0.0	0.0	0.0	0.0	0.0	0.0	0.0	0.0	0.0	0.0	0.0	0.0	0.0	0.0	146.13793103448276	0.0	0.05786118	-0.08496072	1.0194065700000001	2.5942	0.04578	-0.6409199999999999	3278474.0	1776544947.30632	0.0	1.0	-1.0	-1.0	-1.0	-1.0	-1.0	-1.0	-1.0	-1.0	0.0	marker	peace	Peace	23	0418
-68188.905	-55122.704999999994	-104448.105	-18451.395	0.0	0.0	0.0	0.0	0.0	0.0	0.0	0.0	0.0	0.0	0.0	0.0	0.0	0.0	146.13793103448276	0.0	0.05786118	-0.08496072	1.0194065700000001	2.5942	0.04578	-0.6409199999999999	3278475.0	1776544947.306342	0.0	1.0	-1.0	-1.0	-1.0	-1.0	-1.0	-1.0	-1.0	-1.0	0.0	marker	peace	Peace	23	0418
-68238.94499999999	-55131.57	-104510.47499999999	-18486.765	0.0	0.0	0.0	0.0	0.0	0.0	0.0	0.0	0.0	0.0	0.0	0.0	0.0	0.0	146.13793103448276	0.0	0.06042465	-0.08374002	1.018246905	3.3571999999999997	-0.03052	-0.48832	3278476.0	1776544947.310296	0.0	1.0	-1.0	-1.0	-1.0	-1.0	-1.0	-1.0	-1.0	-1.0	0.0	marker	peace	Peace	23	0418
-68211.58499999999	-55137.869999999995	-104453.775	-18467.82	0.0	0.0	0.0	0.0	0.0	0.0	0.0	0.0	0.0	0.0	0.0	0.0	0.0	0.0	146.13793103448276	0.0	0.06042465	-0.08374002	1.018246905	3.3571999999999997	-0.03052	-0.48832	3278477.0	1776544947.310317	0.0	1.0	-1.0	-1.0	-1.0	-1.0	-1.0	-1.0	-1.0	-1.0	0.0	marker	peace	Peace	23	0418
-68135.67	-55147.229999999996	-104379.65999999999	-18424.035	0.0	0.0	0.0	0.0	0.0	0.0	0.0	0.0	0.0	0.0	0.0	0.0	0.0	0.0	146.13793103448276	0.0	0.06042465	-0.08374002	1.018246905	3.3571999999999997	-0.03052	-0.48832	3278478.0	1776544947.314448	0.0	1.0	-1.0	-1.0	-1.0	-1.0	-1.0	-1.0	-1.0	-1.0	0.0	marker	peace	Peace	23	0418
-68121.81	-55140.795	-104365.89	-18367.739999999998	0.0	0.0	0.0	0.0	0.0	0.0	0.0	0.0	0.0	0.0	0.0	0.0	0.0	0.0	146.13793103448276	0.0	0.06042465	-0.08374002	1.018246905	3.3571999999999997	-0.03052	-0.48832	3278479.0	1776544947.314467	0.0	1.0	-1.0	-1.0	-1.0	-1.0	-1.0	-1.0	-1.0	-1.0	0.0	marker	peace	Peace	23	0418
-68127.12	-55133.28	-104396.94	-18374.579999999998	0.0	0.0	0.0	0.0	0.0	0.0	0.0	0.0	0.0	0.0	0.0	0.0	0.0	0.0	146.13793103448276	0.0	0.06042465	-0.08374002	1.018246905	3.3571999999999997	-0.03052	-0.48832	3278480.0	1776544947.318366	0.0	1.0	-1.0	-1.0	-1.0	-1.0	-1.0	-1.0	-1.0	-1.0	0.0	marker	peace	Peace	23	0418
-68109.075	-55130.085	-104393.295	-18403.38	0.0	0.0	0.0	0.0	0.0	0.0	0.0	0.0	0.0	0.0	0.0	0.0	0.0	0.0	146.13793103448276	0.0	0.06042465	-0.08374002	1.018246905	3.3571999999999997	-0.03052	-0.48832	3278481.0	1776544947.318386	0.0	1.0	-1.0	-1.0	-1.0	-1.0	-1.0	-1.0	-1.0	-1.0	0.0	marker	peace	Peace	23	0418
-68205.555	-55122.165	-104453.45999999999	-18455.715	0.0	0.0	0.0	0.0	0.0	0.0	0.0	0.0	0.0	0.0	0.0	0.0	0.0	0.0	146.13793103448276	0.0	0.06042465	-0.08374002	1.018246905	3.3571999999999997	-0.03052	-0.48832	3278482.0	1776544947.322654	0.0	1.0	-1.0	-1.0	-1.0	-1.0	-1.0	-1.0	-1.0	-1.0	0.0	marker	peace	Peace	23	0418
-68298.255	-55117.799999999996	-104529.015	-18503.28	0.0	0.0	0.0	0.0	0.0	0.0	0.0	0.0	0.0	0.0	0.0	0.0	0.0	0.0	146.13793103448276	0.0	0.06042465	-0.08374002	1.018246905	3.3571999999999997	-0.03052	-0.48832	3278483.0	1776544947.322694	0.0	1.0	-1.0	-1.0	-1.0	-1.0	-1.0	-1.0	-1.0	-1.0	0.0	marker	peace	Peace	23	0418
-68225.67	-55106.729999999996	-104501.655	-18488.745	0.0	0.0	0.0	0.0	0.0	0.0	0.0	0.0	0.0	0.0	0.0	0.0	0.0	0.0	146.13793103448276	0.0	0.06042465	-0.08374002	1.018246905	3.3571999999999997	-0.03052	-0.48832	3278484.0	1776544947.326399	0.0	1.0	-1.0	-1.0	-1.0	-1.0	-1.0	-1.0	-1.0	-1.0	0.0	marker	peace	Peace	23	0418
-68172.39	-55106.415	-104455.62	-18461.43	0.0	0.0	0.0	0.0	0.0	0.0	0.0	0.0	0.0	0.0	0.0	0.0	0.0	0.0	146.13793103448276	0.0	0.06042465	-0.08374002	1.018246905	3.3571999999999997	-0.03052	-0.48832	3278485.0	1776544947.326422	0.0	1.0	-1.0	-1.0	-1.0	-1.0	-1.0	-1.0	-1.0	-1.0	0.0	marker	peace	Peace	23	0418
-68186.745	-55115.325	-104438.97	-18442.079999999998	0.0	0.0	0.0	0.0	0.0	0.0	0.0	0.0	0.0	0.0	0.0	0.0	0.0	0.0	146.13793103448276	0.0	0.06188949	-0.08898903	1.013364105	3.67766	0.16785999999999998	-0.62566	3278486.0	1776544947.330446	0.0	1.0	-1.0	-1.0	-1.0	-1.0	-1.0	-1.0	-1.0	-1.0	0.0	marker	peace	Peace	23	0418
-68185.44	-55115.595	-104434.11	-18439.065	0.0	0.0	0.0	0.0	0.0	0.0	0.0	0.0	0.0	0.0	0.0	0.0	0.0	0.0	146.13793103448276	0.0	0.06188949	-0.08898903	1.013364105	3.67766	0.16785999999999998	-0.62566	3278487.0	1776544947.330465	0.0	1.0	-1.0	-1.0	-1.0	-1.0	-1.0	-1.0	-1.0	-1.0	0.0	marker	peace	Peace	23	0418
-68224.455	-55116.09	-104484.64499999999	-18488.79	0.0	0.0	0.0	0.0	0.0	0.0	0.0	0.0	0.0	0.0	0.0	0.0	0.0	0.0	146.13793103448276	0.0	0.06188949	-0.08898903	1.013364105	3.67766	0.16785999999999998	-0.62566	3278488.0	1776544947.336422	0.0	1.0	-1.0	-1.0	-1.0	-1.0	-1.0	-1.0	-1.0	-1.0	0.0	marker	peace	Peace	23	0418
-68191.69499999999	-55106.28	-104479.515	-18481.23	0.0	0.0	0.0	0.0	0.0	0.0	0.0	0.0	0.0	0.0	0.0	0.0	0.0	0.0	146.13793103448276	0.0	0.06188949	-0.08898903	1.013364105	3.67766	0.16785999999999998	-0.62566	3278489.0	1776544947.336447	0.0	1.0	-1.0	-1.0	-1.0	-1.0	-1.0	-1.0	-1.0	-1.0	0.0	marker	peace	Peace	23	0418
-68201.685	-55087.695	-104447.295	-18427.005	0.0	0.0	0.0	0.0	0.0	0.0	0.0	0.0	0.0	0.0	0.0	0.0	0.0	0.0	146.13793103448276	0.0	0.06188949	-0.08898903	1.013364105	3.67766	0.16785999999999998	-0.62566	3278490.0	1776544947.339216	0.0	1.0	-1.0	-1.0	-1.0	-1.0	-1.0	-1.0	-1.0	-1.0	0.0	marker	peace	Peace	23	0418
-68176.215	-55072.619999999995	-104414.84999999999	-18416.204999999998	0.0	0.0	0.0	0.0	0.0	0.0	0.0	0.0	0.0	0.0	0.0	0.0	0.0	0.0	146.13793103448276	0.0	0.06188949	-0.08898903	1.013364105	3.67766	0.16785999999999998	-0.62566	3278491.0	1776544947.339242	0.0	1.0	-1.0	-1.0	-1.0	-1.0	-1.0	-1.0	-1.0	-1.0	0.0	marker	peace	Peace	23	0418
-68237.55	-55075.994999999995	-104459.04	-18462.329999999998	0.0	0.0	0.0	0.0	0.0	0.0	0.0	0.0	0.0	0.0	0.0	0.0	0.0	0.0	146.13793103448276	0.0	0.06188949	-0.08898903	1.013364105	3.67766	0.16785999999999998	-0.62566	3278492.0	1776544947.342366	0.0	1.0	-1.0	-1.0	-1.0	-1.0	-1.0	-1.0	-1.0	-1.0	0.0	marker	peace	Peace	23	0418
-68215.05	-55069.2	-104453.595	-18459.18	0.0	0.0	0.0	0.0	0.0	0.0	0.0	0.0	0.0	0.0	0.0	0.0	0.0	0.0	146.13793103448276	0.0	0.06188949	-0.08898903	1.013364105	3.67766	0.16785999999999998	-0.62566	3278493.0	1776544947.342385	0.0	1.0	-1.0	-1.0	-1.0	-1.0	-1.0	-1.0	-1.0	-1.0	0.0	marker	peace	Peace	23	0418
-68215.545	-55070.549999999996	-104442.795	-18459.719999999998	0.0	0.0	0.0	0.0	0.0	0.0	0.0	0.0	0.0	0.0	0.0	0.0	0.0	0.0	146.13793103448276	0.0	0.06188949	-0.08898903	1.013364105	3.67766	0.16785999999999998	-0.62566	3278494.0	1776544947.346589	0.0	1.0	-1.0	-1.0	-1.0	-1.0	-1.0	-1.0	-1.0	-1.0	0.0	marker	peace	Peace	23	0418
-68192.01	-55063.755	-104424.345	-18451.26	0.0	0.0	0.0	0.0	0.0	0.0	0.0	0.0	0.0	0.0	0.0	0.0	0.0	0.0	146.13793103448276	0.0	0.06188949	-0.08898903	1.013364105	3.67766	0.16785999999999998	-0.62566	3278495.0	1776544947.346621	0.0	1.0	-1.0	-1.0	-1.0	-1.0	-1.0	-1.0	-1.0	-1.0	0.0	marker	peace	Peace	23	0418
-68165.325	-55052.729999999996	-104434.605	-18444.78	0.0	0.0	0.0	0.0	0.0	0.0	0.0	0.0	0.0	0.0	0.0	0.0	0.0	0.0	146.13793103448276	0.0	0.058654635000000004	-0.090026625	1.01086167	2.1364	0.47306	-0.97664	3278496.0	1776544947.350556	0.0	1.0	-1.0	-1.0	-1.0	-1.0	-1.0	-1.0	-1.0	-1.0	0.0	marker	peace	Peace	23	0418
-68171.355	-55040.985	-104426.45999999999	-18452.969999999998	0.0	0.0	0.0	0.0	0.0	0.0	0.0	0.0	0.0	0.0	0.0	0.0	0.0	0.0	146.13793103448276	0.0	0.058654635000000004	-0.090026625	1.01086167	2.1364	0.47306	-0.97664	3278497.0	1776544947.35059	0.0	1.0	-1.0	-1.0	-1.0	-1.0	-1.0	-1.0	-1.0	-1.0	0.0	marker	peace	Peace	23	0418
-68157.495	-55026.54	-104405.265	-18423.18	0.0	0.0	0.0	0.0	0.0	0.0	0.0	0.0	0.0	0.0	0.0	0.0	0.0	0.0	146.13793103448276	0.0	0.058654635000000004	-0.090026625	1.01086167	2.1364	0.47306	-0.97664	3278498.0	1776544947.355574	0.0	1.0	-1.0	-1.0	-1.0	-1.0	-1.0	-1.0	-1.0	-1.0	0.0	marker	peace	Peace	23	0418
-68137.47	-55011.78	-104399.50499999999	-18368.505	0.0	0.0	0.0	0.0	0.0	0.0	0.0	0.0	0.0	0.0	0.0	0.0	0.0	0.0	146.13793103448276	0.0	0.058654635000000004	-0.090026625	1.01086167	2.1364	0.47306	-0.97664	3278499.0	1776544947.355608	0.0	1.0	-1.0	-1.0	-1.0	-1.0	-1.0	-1.0	-1.0	-1.0	0.0	marker	peace	Peace	23	0418
-68209.92	-55023.84	-104454.94499999999	-18457.965	0.0	0.0	0.0	0.0	0.0	0.0	0.0	0.0	0.0	0.0	0.0	0.0	0.0	0.0	146.13793103448276	0.0	0.058654635000000004	-0.090026625	1.01086167	2.1364	0.47306	-0.97664	3278500.0	1776544947.360989	0.0	1.0	-1.0	-1.0	-1.0	-1.0	-1.0	-1.0	-1.0	-1.0	0.0	marker	peace	Peace	23	0418
-68206.05	-55034.46	-104443.83	-18470.745	0.0	0.0	0.0	0.0	0.0	0.0	0.0	0.0	0.0	0.0	0.0	0.0	0.0	0.0	146.13793103448276	0.0	0.058654635000000004	-0.090026625	1.01086167	2.1364	0.47306	-0.97664	3278501.0	1776544947.361005	0.0	1.0	-1.0	-1.0	-1.0	-1.0	-1.0	-1.0	-1.0	-1.0	0.0	marker	peace	Peace	23	0418
-68176.665	-55030.14	-104426.01	-18434.969999999998	0.0	0.0	0.0	0.0	0.0	0.0	0.0	0.0	0.0	0.0	0.0	0.0	0.0	0.0	146.13793103448276	0.0	0.058654635000000004	-0.090026625	1.01086167	2.1364	0.47306	-0.97664	3278502.0	1776544947.362655	0.0	1.0	-1.0	-1.0	-1.0	-1.0	-1.0	-1.0	-1.0	-1.0	0.0	marker	peace	Peace	23	0418
-68159.25	-55031.805	-104397.03	-18406.305	0.0	0.0	0.0	0.0	0.0	0.0	0.0	0.0	0.0	0.0	0.0	0.0	0.0	0.0	146.13793103448276	0.0	0.058654635000000004	-0.090026625	1.01086167	2.1364	0.47306	-0.97664	3278503.0	1776544947.362671	0.0	1.0	-1.0	-1.0	-1.0	-1.0	-1.0	-1.0	-1.0	-1.0	0.0	marker	peace	Peace	23	0418
-68211.495	-55034.145	-104420.06999999999	-18448.02	0.0	0.0	0.0	0.0	0.0	0.0	0.0	0.0	0.0	0.0	0.0	0.0	0.0	0.0	146.13793103448276	0.0	0.058654635000000004	-0.090026625	1.01086167	2.1364	0.47306	-0.97664	3278504.0	1776544947.366648	0.0	1.0	-1.0	-1.0	-1.0	-1.0	-1.0	-1.0	-1.0	-1.0	0.0	marker	peace	Peace	23	0418
-68206.86	-55026.314999999995	-104429.655	-18455.085	0.0	0.0	0.0	0.0	0.0	0.0	0.0	0.0	0.0	0.0	0.0	0.0	0.0	0.0	146.13793103448276	0.0	0.058654635000000004	-0.090026625	1.01086167	2.1364	0.47306	-0.97664	3278505.0	1776544947.366674	0.0	1.0	-1.0	-1.0	-1.0	-1.0	-1.0	-1.0	-1.0	-1.0	0.0	marker	peace	Peace	23	0418
-68173.73999999999	-55019.204999999994	-104434.29	-18446.76	0.0	0.0	0.0	0.0	0.0	0.0	0.0	0.0	0.0	0.0	0.0	0.0	0.0	0.0	146.13793103448276	0.0	0.05700669	-0.09204078	1.01330307	1.72438	0.50358	-0.97664	3278506.0	1776544947.370647	0.0	1.0	-1.0	-1.0	-1.0	-1.0	-1.0	-1.0	-1.0	-1.0	0.0	marker	peace	Peace	23	0418
-68200.29	-55012.905	-104458.185	-18453.195	0.0	0.0	0.0	0.0	0.0	0.0	0.0	0.0	0.0	0.0	0.0	0.0	0.0	0.0	146.13793103448276	0.0	0.05700669	-0.09204078	1.01330307	1.72438	0.50358	-0.97664	3278507.0	1776544947.370684	0.0	1.0	-1.0	-1.0	-1.0	-1.0	-1.0	-1.0	-1.0	-1.0	0.0	marker	peace	Peace	23	0418
-68225.895	-55008.45	-104452.83	-18450.989999999998	0.0	0.0	0.0	0.0	0.0	0.0	0.0	0.0	0.0	0.0	0.0	0.0	0.0	0.0	146.13793103448276	0.0	0.05700669	-0.09204078	1.01330307	1.72438	0.50358	-0.97664	3278508.0	1776544947.376164	0.0	1.0	-1.0	-1.0	-1.0	-1.0	-1.0	-1.0	-1.0	-1.0	0.0	marker	peace	Peace	23	0418
-68194.485	-55005.84	-104425.965	-18420.75	0.0	0.0	0.0	0.0	0.0	0.0	0.0	0.0	0.0	0.0	0.0	0.0	0.0	0.0	146.13793103448276	0.0	0.05700669	-0.09204078	1.01330307	1.72438	0.50358	-0.97664	3278509.0	1776544947.376182	0.0	1.0	-1.0	-1.0	-1.0	-1.0	-1.0	-1.0	-1.0	-1.0	0.0	marker	peace	Peace	23	0418
-68101.605	-55004.174999999996	-104395.76999999999	-18362.204999999998	0.0	0.0	0.0	0.0	0.0	0.0	0.0	0.0	0.0	0.0	0.0	0.0	0.0	0.0	146.13793103448276	0.0	0.05700669	-0.09204078	1.01330307	1.72438	0.50358	-0.97664	3278510.0	1776544947.37873	0.0	1.0	-1.0	-1.0	-1.0	-1.0	-1.0	-1.0	-1.0	-1.0	0.0	marker	peace	Peace	23	0418
-68083.965	-55004.579999999994	-104406.25499999999	-18366.075	0.0	0.0	0.0	0.0	0.0	0.0	0.0	0.0	0.0	0.0	0.0	0.0	0.0	0.0	146.13793103448276	0.0	0.05700669	-0.09204078	1.01330307	1.72438	0.50358	-0.97664	3278511.0	1776544947.378762	0.0	1.0	-1.0	-1.0	-1.0	-1.0	-1.0	-1.0	-1.0	-1.0	0.0	marker	peace	Peace	23	0418
-68234.355	-55004.49	-104482.17	-18479.204999999998	0.0	0.0	0.0	0.0	0.0	0.0	0.0	0.0	0.0	0.0	0.0	0.0	0.0	0.0	146.13793103448276	0.0	0.05700669	-0.09204078	1.01330307	1.72438	0.50358	-0.97664	3278512.0	1776544947.382725	0.0	1.0	-1.0	-1.0	-1.0	-1.0	-1.0	-1.0	-1.0	-1.0	0.0	marker	peace	Peace	23	0418
-68272.065	-54997.02	-104471.415	-18474.975	0.0	0.0	0.0	0.0	0.0	0.0	0.0	0.0	0.0	0.0	0.0	0.0	0.0	0.0	146.13793103448276	0.0	0.05700669	-0.09204078	1.01330307	1.72438	0.50358	-0.97664	3278513.0	1776544947.382764	0.0	1.0	-1.0	-1.0	-1.0	-1.0	-1.0	-1.0	-1.0	-1.0	0.0	marker	peace	Peace	23	0418
-68229.495	-54966.24	-104413.995	-18441.899999999998	0.0	0.0	0.0	0.0	0.0	0.0	0.0	0.0	0.0	0.0	0.0	0.0	0.0	0.0	146.13793103448276	0.0	0.05700669	-0.09204078	1.01330307	1.72438	0.50358	-0.97664	3278514.0	1776544947.387639	0.0	1.0	-1.0	-1.0	-1.0	-1.0	-1.0	-1.0	-1.0	-1.0	0.0	marker	peace	Peace	23	0418
-68195.47499999999	-54937.305	-104425.29	-18461.969999999998	0.0	0.0	0.0	0.0	0.0	0.0	0.0	0.0	0.0	0.0	0.0	0.0	0.0	0.0	146.13793103448276	0.0	0.05700669	-0.09204078	1.01330307	1.72438	0.50358	-0.97664	3278515.0	1776544947.387673	0.0	1.0	-1.0	-1.0	-1.0	-1.0	-1.0	-1.0	-1.0	-1.0	0.0	marker	peace	Peace	23	0418
-68174.91	-54928.215	-104470.875	-18467.1	0.0	0.0	0.0	0.0	0.0	0.0	0.0	0.0	0.0	0.0	0.0	0.0	0.0	0.0	146.13793103448276	0.0	0.057556005	-0.09423804	1.01501205	2.76206	0.65618	-2.0448399999999998	3278516.0	1776544947.390605	0.0	1.0	-1.0	-1.0	-1.0	-1.0	-1.0	-1.0	-1.0	-1.0	0.0	marker	peace	Peace	23	0418
-68161.905	-54924.03	-104473.44	-18437.219999999998	0.0	0.0	0.0	0.0	0.0	0.0	0.0	0.0	0.0	0.0	0.0	0.0	0.0	0.0	146.13793103448276	0.0	0.057556005	-0.09423804	1.01501205	2.76206	0.65618	-2.0448399999999998	3278517.0	1776544947.390621	0.0	1.0	-1.0	-1.0	-1.0	-1.0	-1.0	-1.0	-1.0	-1.0	0.0	marker	peace	Peace	23	0418
-68180.94	-54923.67	-104400.855	-18394.425	0.0	0.0	0.0	0.0	0.0	0.0	0.0	0.0	0.0	0.0	0.0	0.0	0.0	0.0	146.13793103448276	0.0	0.057556005	-0.09423804	1.01501205	2.76206	0.65618	-2.0448399999999998	3278518.0	1776544947.394554	0.0	1.0	-1.0	-1.0	-1.0	-1.0	-1.0	-1.0	-1.0	-1.0	0.0	marker	peace	Peace	23	0418
-68160.015	-54927.9	-104366.295	-18394.875	0.0	0.0	0.0	0.0	0.0	0.0	0.0	0.0	0.0	0.0	0.0	0.0	0.0	0.0	146.13793103448276	0.0	0.057556005	-0.09423804	1.01501205	2.76206	0.65618	-2.0448399999999998	3278519.0	1776544947.394574	0.0	1.0	-1.0	-1.0	-1.0	-1.0	-1.0	-1.0	-1.0	-1.0	0.0	marker	peace	Peace	23	0418
-68176.08	-54941.895	-104392.17	-18413.864999999998	0.0	0.0	0.0	0.0	0.0	0.0	0.0	0.0	0.0	0.0	0.0	0.0	0.0	0.0	146.13793103448276	0.0	0.057556005	-0.09423804	1.01501205	2.76206	0.65618	-2.0448399999999998	3278520.0	1776544947.401519	0.0	1.0	-1.0	-1.0	-1.0	-1.0	-1.0	-1.0	-1.0	-1.0	0.0	marker	peace	Peace	23	0418
-68221.395	-54949.545	-104464.8	-18450.719999999998	0.0	0.0	0.0	0.0	0.0	0.0	0.0	0.0	0.0	0.0	0.0	0.0	0.0	0.0	146.13793103448276	0.0	0.057556005	-0.09423804	1.01501205	2.76206	0.65618	-2.0448399999999998	3278521.0	1776544947.401542	0.0	1.0	-1.0	-1.0	-1.0	-1.0	-1.0	-1.0	-1.0	-1.0	0.0	marker	peace	Peace	23	0418
-68259.33	-54950.715	-104503.815	-18489.105	0.0	0.0	0.0	0.0	0.0	0.0	0.0	0.0	0.0	0.0	0.0	0.0	0.0	0.0	146.13793103448276	0.0	0.057556005	-0.09423804	1.01501205	2.76206	0.65618	-2.0448399999999998	3278522.0	1776544947.402536	0.0	1.0	-1.0	-1.0	-1.0	-1.0	-1.0	-1.0	-1.0	-1.0	0.0	marker	peace	Peace	23	0418
-68228.055	-54946.665	-104467.59	-18470.925	0.0	0.0	0.0	0.0	0.0	0.0	0.0	0.0	0.0	0.0	0.0	0.0	0.0	0.0	146.13793103448276	0.0	0.057556005	-0.09423804	1.01501205	2.76206	0.65618	-2.0448399999999998	3278523.0	1776544947.402583	0.0	1.0	-1.0	-1.0	-1.0	-1.0	-1.0	-1.0	-1.0	-1.0	0.0	marker	peace	Peace	23	0418
-68143.095	-54934.02	-104378.76	-18386.325	0.0	0.0	0.0	0.0	0.0	0.0	0.0	0.0	0.0	0.0	0.0	0.0	0.0	0.0	146.13793103448276	0.0	0.057556005	-0.09423804	1.01501205	2.76206	0.65618	-2.0448399999999998	3278524.0	1776544947.406651	0.0	1.0	-1.0	-1.0	-1.0	-1.0	-1.0	-1.0	-1.0	-1.0	0.0	marker	peace	Peace	23	0418
-68147.64	-54937.89	-104385.95999999999	-18403.29	0.0	0.0	0.0	0.0	0.0	0.0	0.0	0.0	0.0	0.0	0.0	0.0	0.0	0.0	146.13793103448276	0.0	0.057556005	-0.09423804	1.01501205	2.76206	0.65618	-2.0448399999999998	3278525.0	1776544947.406678	0.0	1.0	-1.0	-1.0	-1.0	-1.0	-1.0	-1.0	-1.0	-1.0	0.0	marker	peace	Peace	23	0418
-68266.44	-54952.29	-104521.31999999999	-18506.655	0.0	0.0	0.0	0.0	0.0	0.0	0.0	0.0	0.0	0.0	0.0	0.0	0.0	0.0	146.13793103448276	0.0	0.060973965	-0.09692358	1.01330307	4.91372	1.0224199999999999	-2.38056	3278526.0	1776544947.410681	0.0	1.0	-1.0	-1.0	-1.0	-1.0	-1.0	-1.0	-1.0	-1.0	0.0	marker	peace	Peace	23	0418
-68196.735	-54950.49	-104464.34999999999	-18437.265	0.0	0.0	0.0	0.0	0.0	0.0	0.0	0.0	0.0	0.0	0.0	0.0	0.0	0.0	146.13793103448276	0.0	0.060973965	-0.09692358	1.01330307	4.91372	1.0224199999999999	-2.38056	3278527.0	1776544947.4107	0.0	1.0	-1.0	-1.0	-1.0	-1.0	-1.0	-1.0	-1.0	-1.0	0.0	marker	peace	Peace	23	0418
-68181.61499999999	-54963.18	-104445.26999999999	-18438.434999999998	0.0	0.0	0.0	0.0	0.0	0.0	0.0	0.0	0.0	0.0	0.0	0.0	0.0	0.0	146.13793103448276	0.0	0.060973965	-0.09692358	1.01330307	4.91372	1.0224199999999999	-2.38056	3278528.0	1776544947.414648	0.0	1.0	-1.0	-1.0	-1.0	-1.0	-1.0	-1.0	-1.0	-1.0	0.0	marker	peace	Peace	23	0418
-68248.665	-54966.104999999996	-104487.20999999999	-18500.219999999998	0.0	0.0	0.0	0.0	0.0	0.0	0.0	0.0	0.0	0.0	0.0	0.0	0.0	0.0	146.13793103448276	0.0	0.060973965	-0.09692358	1.01330307	4.91372	1.0224199999999999	-2.38056	3278529.0	1776544947.414668	0.0	1.0	-1.0	-1.0	-1.0	-1.0	-1.0	-1.0	-1.0	-1.0	0.0	marker	peace	Peace	23	0418
-68184.22499999999	-54949.454999999994	-104463.09	-18469.215	0.0	0.0	0.0	0.0	0.0	0.0	0.0	0.0	0.0	0.0	0.0	0.0	0.0	0.0	146.13793103448276	0.0	0.060973965	-0.09692358	1.01330307	4.91372	1.0224199999999999	-2.38056	3278530.0	1776544947.419526	0.0	1.0	-1.0	-1.0	-1.0	-1.0	-1.0	-1.0	-1.0	-1.0	0.0	marker	peace	Peace	23	0418
-68138.325	-54937.845	-104392.44	-18408.149999999998	0.0	0.0	0.0	0.0	0.0	0.0	0.0	0.0	0.0	0.0	0.0	0.0	0.0	0.0	146.13793103448276	0.0	0.060973965	-0.09692358	1.01330307	4.91372	1.0224199999999999	-2.38056	3278531.0	1776544947.419567	0.0	1.0	-1.0	-1.0	-1.0	-1.0	-1.0	-1.0	-1.0	-1.0	0.0	marker	peace	Peace	23	0418
-68195.205	-54931.14	-104422.905	-18442.485	0.0	0.0	0.0	0.0	0.0	0.0	0.0	0.0	0.0	0.0	0.0	0.0	0.0	0.0	146.13793103448276	0.0	0.060973965	-0.09692358	1.01330307	4.91372	1.0224199999999999	-2.38056	3278532.0	1776544947.422737	0.0	1.0	-1.0	-1.0	-1.0	-1.0	-1.0	-1.0	-1.0	-1.0	0.0	marker	peace	Peace	23	0418
-68184.765	-54925.335	-104433.84	-18419.489999999998	0.0	0.0	0.0	0.0	0.0	0.0	0.0	0.0	0.0	0.0	0.0	0.0	0.0	0.0	146.13793103448276	0.0	0.060973965	-0.09692358	1.01330307	4.91372	1.0224199999999999	-2.38056	3278533.0	1776544947.422767	0.0	1.0	-1.0	-1.0	-1.0	-1.0	-1.0	-1.0	-1.0	-1.0	0.0	marker	peace	Peace	23	0418
-68136.3	-54911.43	-104367.64499999999	-18360.809999999998	0.0	0.0	0.0	0.0	0.0	0.0	0.0	0.0	0.0	0.0	0.0	0.0	0.0	0.0	146.13793103448276	0.0	0.060973965	-0.09692358	1.01330307	4.91372	1.0224199999999999	-2.38056	3278534.0	1776544947.426663	0.0	1.0	-1.0	-1.0	-1.0	-1.0	-1.0	-1.0	-1.0	-1.0	0.0	marker	peace	Peace	23	0418
-68132.97	-54902.835	-104418.135	-18397.98	0.0	0.0	0.0	0.0	0.0	0.0	0.0	0.0	0.0	0.0	0.0	0.0	0.0	0.0	146.13793103448276	0.0	0.060973965	-0.09692358	1.01330307	4.91372	1.0224199999999999	-2.38056	3278535.0	1776544947.426681	0.0	1.0	-1.0	-1.0	-1.0	-1.0	-1.0	-1.0	-1.0	-1.0	0.0	marker	peace	Peace	23	0418
-68207.94	-54914.445	-104502.19499999999	-18488.565	0.0	0.0	0.0	0.0	0.0	0.0	0.0	0.0	0.0	0.0	0.0	0.0	0.0	0.0	146.13793103448276	0.0	0.06176742	-0.096496335	1.01025132	5.43256	1.31236	-2.10588	3278536.0	1776544947.433684	0.0	1.0	-1.0	-1.0	-1.0	-1.0	-1.0	-1.0	-1.0	-1.0	0.0	marker	peace	Peace	23	0418
-68269.095	-54923.31	-104526.94499999999	-18497.969999999998	0.0	0.0	0.0	0.0	0.0	0.0	0.0	0.0	0.0	0.0	0.0	0.0	0.0	0.0	146.13793103448276	0.0	0.06176742	-0.096496335	1.01025132	5.43256	1.31236	-2.10588	3278537.0	1776544947.43373	0.0	1.0	-1.0	-1.0	-1.0	-1.0	-1.0	-1.0	-1.0	-1.0	0.0	marker	peace	Peace	23	0418
-68171.13	-54915.93	-104459.31	-18427.77	0.0	0.0	0.0	0.0	0.0	0.0	0.0	0.0	0.0	0.0	0.0	0.0	0.0	0.0	146.13793103448276	0.0	0.06176742	-0.096496335	1.01025132	5.43256	1.31236	-2.10588	3278538.0	1776544947.439652	0.0	1.0	-1.0	-1.0	-1.0	-1.0	-1.0	-1.0	-1.0	-1.0	0.0	marker	peace	Peace	23	0418
-68191.47	-54911.295	-104436.26999999999	-18424.844999999998	0.0	0.0	0.0	0.0	0.0	0.0	0.0	0.0	0.0	0.0	0.0	0.0	0.0	0.0	146.13793103448276	0.0	0.06176742	-0.096496335	1.01025132	5.43256	1.31236	-2.10588	3278539.0	1776544947.439674	0.0	1.0	-1.0	-1.0	-1.0	-1.0	-1.0	-1.0	-1.0	-1.0	0.0	marker	peace	Peace	23	0418
-68275.665	-54909.63	-104485.095	-18478.215	0.0	0.0	0.0	0.0	0.0	0.0	0.0	0.0	0.0	0.0	0.0	0.0	0.0	0.0	146.13793103448276	0.0	0.06176742	-0.096496335	1.01025132	5.43256	1.31236	-2.10588	3278540.0	1776544947.44262	0.0	1.0	-1.0	-1.0	-1.0	-1.0	-1.0	-1.0	-1.0	-1.0	0.0	marker	peace	Peace	23	0418
-68250.87	-54911.25	-104458.68	-18457.739999999998	0.0	0.0	0.0	0.0	0.0	0.0	0.0	0.0	0.0	0.0	0.0	0.0	0.0	0.0	146.13793103448276	0.0	0.06176742	-0.096496335	1.01025132	5.43256	1.31236	-2.10588	3278541.0	1776544947.442637	0.0	1.0	-1.0	-1.0	-1.0	-1.0	-1.0	-1.0	-1.0	-1.0	0.0	marker	peace	Peace	23	0418
-68210.055	-54914.715	-104415.25499999999	-18451.89	0.0	0.0	0.0	0.0	0.0	0.0	0.0	0.0	0.0	0.0	0.0	0.0	0.0	0.0	146.13793103448276	0.0	0.06176742	-0.096496335	1.01025132	5.43256	1.31236	-2.10588	3278542.0	1776544947.445843	0.0	1.0	-1.0	-1.0	-1.0	-1.0	-1.0	-1.0	-1.0	-1.0	0.0	marker	peace	Peace	23	0418
-68146.065	-54912.825	-104397.84	-18458.1	0.0	0.0	0.0	0.0	0.0	0.0	0.0	0.0	0.0	0.0	0.0	0.0	0.0	0.0	146.13793103448276	0.0	0.06176742	-0.096496335	1.01025132	5.43256	1.31236	-2.10588	3278543.0	1776544947.445864	0.0	1.0	-1.0	-1.0	-1.0	-1.0	-1.0	-1.0	-1.0	-1.0	0.0	marker	peace	Peace	23	0418
-68161.455	-54924.119999999995	-104450.84999999999	-18430.065	0.0	0.0	0.0	0.0	0.0	0.0	0.0	0.0	0.0	0.0	0.0	0.0	0.0	0.0	146.13793103448276	0.0	0.06176742	-0.096496335	1.01025132	5.43256	1.31236	-2.10588	3278544.0	1776544947.446682	0.0	1.0	-1.0	-1.0	-1.0	-1.0	-1.0	-1.0	-1.0	-1.0	0.0	marker	peace	Peace	23	0418
-68162.76	-54939.329999999994	-104461.065	-18409.274999999998	0.0	0.0	0.0	0.0	0.0	0.0	0.0	0.0	0.0	0.0	0.0	0.0	0.0	0.0	146.13793103448276	0.0	0.06176742	-0.096496335	1.01025132	5.43256	1.31236	-2.10588	3278545.0	1776544947.446701	0.0	1.0	-1.0	-1.0	-1.0	-1.0	-1.0	-1.0	-1.0	-1.0	0.0	marker	peace	Peace	23	0418
-68153.355	-54937.979999999996	-104474.295	-18404.64	0.0	0.0	0.0	0.0	0.0	0.0	0.0	0.0	0.0	0.0	0.0	0.0	0.0	0.0	146.13793103448276	0.0	0.057922215	-0.08947731	1.01183823	4.6543	1.15976	-1.70912	3278546.0	1776544947.450869	0.0	1.0	-1.0	-1.0	-1.0	-1.0	-1.0	-1.0	-1.0	-1.0	0.0	marker	peace	Peace	23	0418
-68255.37	-54933.255	-104509.125	-18467.64	0.0	0.0	0.0	0.0	0.0	0.0	0.0	0.0	0.0	0.0	0.0	0.0	0.0	0.0	146.13793103448276	0.0	0.057922215	-0.08947731	1.01183823	4.6543	1.15976	-1.70912	3278547.0	1776544947.450891	0.0	1.0	-1.0	-1.0	-1.0	-1.0	-1.0	-1.0	-1.0	-1.0	0.0	marker	peace	Peace	23	0418
-68215.31999999999	-54920.115	-104420.925	-18446.04	0.0	0.0	0.0	0.0	0.0	0.0	0.0	0.0	0.0	0.0	0.0	0.0	0.0	0.0	146.13793103448276	0.0	0.057922215	-0.08947731	1.01183823	4.6543	1.15976	-1.70912	3278548.0	1776544947.454699	0.0	1.0	-1.0	-1.0	-1.0	-1.0	-1.0	-1.0	-1.0	-1.0	0.0	marker	peace	Peace	23	0418
-68198.4	-54919.17	-104420.47499999999	-18448.29	0.0	0.0	0.0	0.0	0.0	0.0	0.0	0.0	0.0	0.0	0.0	0.0	0.0	0.0	146.13793103448276	0.0	0.057922215	-0.08947731	1.01183823	4.6543	1.15976	-1.70912	3278549.0	1776544947.454724	0.0	1.0	-1.0	-1.0	-1.0	-1.0	-1.0	-1.0	-1.0	-1.0	0.0	marker	peace	Peace	23	0418
-68163.97499999999	-54924.659999999996	-104421.735	-18424.125	0.0	0.0	0.0	0.0	0.0	0.0	0.0	0.0	0.0	0.0	0.0	0.0	0.0	0.0	146.13793103448276	0.0	0.057922215	-0.08947731	1.01183823	4.6543	1.15976	-1.70912	3278550.0	1776544947.458738	0.0	1.0	-1.0	-1.0	-1.0	-1.0	-1.0	-1.0	-1.0	-1.0	0.0	marker	peace	Peace	23	0418
-68128.92	-54922.005	-104358.015	-18394.92	0.0	0.0	0.0	0.0	0.0	0.0	0.0	0.0	0.0	0.0	0.0	0.0	0.0	0.0	146.13793103448276	0.0	0.057922215	-0.08947731	1.01183823	4.6543	1.15976	-1.70912	3278551.0	1776544947.458753	0.0	1.0	-1.0	-1.0	-1.0	-1.0	-1.0	-1.0	-1.0	-1.0	0.0	marker	peace	Peace	23	0418
-68154.3	-54926.729999999996	-104361.48	-18424.035	0.0	0.0	0.0	0.0	0.0	0.0	0.0	0.0	0.0	0.0	0.0	0.0	0.0	0.0	146.13793103448276	0.0	0.057922215	-0.08947731	1.01183823	4.6543	1.15976	-1.70912	3278552.0	1776544947.462765	0.0	1.0	-1.0	-1.0	-1.0	-1.0	-1.0	-1.0	-1.0	-1.0	0.0	marker	peace	Peace	23	0418
-68193.81	-54938.204999999994	-104441.67	-18476.19	0.0	0.0	0.0	0.0	0.0	0.0	0.0	0.0	0.0	0.0	0.0	0.0	0.0	0.0	146.13793103448276	0.0	0.057922215	-0.08947731	1.01183823	4.6543	1.15976	-1.70912	3278553.0	1776544947.462775	0.0	1.0	-1.0	-1.0	-1.0	-1.0	-1.0	-1.0	-1.0	-1.0	0.0	marker	peace	Peace	23	0418
-68193.315	-54936.63	-104488.515	-18492.344999999998	0.0	0.0	0.0	0.0	0.0	0.0	0.0	0.0	0.0	0.0	0.0	0.0	0.0	0.0	146.13793103448276	0.0	0.057922215	-0.08947731	1.01183823	4.6543	1.15976	-1.70912	3278554.0	1776544947.466819	0.0	1.0	-1.0	-1.0	-1.0	-1.0	-1.0	-1.0	-1.0	-1.0	0.0	marker	peace	Peace	23	0418
-68231.565	-54934.92	-104542.92	-18459.045	0.0	0.0	0.0	0.0	0.0	0.0	0.0	0.0	0.0	0.0	0.0	0.0	0.0	0.0	146.13793103448276	0.0	0.057922215	-0.08947731	1.01183823	4.6543	1.15976	-1.70912	3278555.0	1776544947.466839	0.0	1.0	-1.0	-1.0	-1.0	-1.0	-1.0	-1.0	-1.0	-1.0	0.0	marker	peace	Peace	23	0418
-68256.63	-54929.115	-104544.45	-18471.465	0.0	0.0	0.0	0.0	0.0	0.0	0.0	0.0	0.0	0.0	0.0	0.0	0.0	0.0	146.13793103448276	0.0	0.05395494	-0.0793455	1.016904135	3.90656	0.8392999999999999	-1.0834599999999999	3278556.0	1776544947.470834	0.0	1.0	-1.0	-1.0	-1.0	-1.0	-1.0	-1.0	-1.0	-1.0	0.0	marker	peace	Peace	23	0418
-68178.23999999999	-54917.1	-104407.83	-18386.954999999998	0.0	0.0	0.0	0.0	0.0	0.0	0.0	0.0	0.0	0.0	0.0	0.0	0.0	0.0	146.13793103448276	0.0	0.05395494	-0.0793455	1.016904135	3.90656	0.8392999999999999	-1.0834599999999999	3278557.0	1776544947.470874	0.0	1.0	-1.0	-1.0	-1.0	-1.0	-1.0	-1.0	-1.0	-1.0	0.0	marker	peace	Peace	23	0418
-68127.12	-54912.015	-104418.135	-18399.915	0.0	0.0	0.0	0.0	0.0	0.0	0.0	0.0	0.0	0.0	0.0	0.0	0.0	0.0	146.13793103448276	0.0	0.05395494	-0.0793455	1.016904135	3.90656	0.8392999999999999	-1.0834599999999999	3278558.0	1776544947.476448	0.0	1.0	-1.0	-1.0	-1.0	-1.0	-1.0	-1.0	-1.0	-1.0	0.0	marker	peace	Peace	23	0418
-68188.36499999999	-54926.865	-104476.95	-18468.765	0.0	0.0	0.0	0.0	0.0	0.0	0.0	0.0	0.0	0.0	0.0	0.0	0.0	0.0	146.13793103448276	0.0	0.05395494	-0.0793455	1.016904135	3.90656	0.8392999999999999	-1.0834599999999999	3278559.0	1776544947.476461	0.0	1.0	-1.0	-1.0	-1.0	-1.0	-1.0	-1.0	-1.0	-1.0	0.0	marker	peace	Peace	23	0418
-68233.005	-54948.915	-104477.58	-18469.395	0.0	0.0	0.0	0.0	0.0	0.0	0.0	0.0	0.0	0.0	0.0	0.0	0.0	0.0	146.13793103448276	0.0	0.05395494	-0.0793455	1.016904135	3.90656	0.8392999999999999	-1.0834599999999999	3278560.0	1776544947.482038	0.0	1.0	-1.0	-1.0	-1.0	-1.0	-1.0	-1.0	-1.0	-1.0	0.0	marker	peace	Peace	23	0418
-68194.08	-54960.075	-104419.53	-18397.395	0.0	0.0	0.0	0.0	0.0	0.0	0.0	0.0	0.0	0.0	0.0	0.0	0.0	0.0	146.13793103448276	0.0	0.05395494	-0.0793455	1.016904135	3.90656	0.8392999999999999	-1.0834599999999999	3278561.0	1776544947.482075	0.0	1.0	-1.0	-1.0	-1.0	-1.0	-1.0	-1.0	-1.0	-1.0	0.0	marker	peace	Peace	23	0418
-68179.905	-54961.38	-104429.295	-18418.68	0.0	0.0	0.0	0.0	0.0	0.0	0.0	0.0	0.0	0.0	0.0	0.0	0.0	0.0	146.13793103448276	0.0	0.05395494	-0.0793455	1.016904135	3.90656	0.8392999999999999	-1.0834599999999999	3278562.0	1776544947.482989	0.0	1.0	-1.0	-1.0	-1.0	-1.0	-1.0	-1.0	-1.0	-1.0	0.0	marker	peace	Peace	23	0418
-68195.43	-54956.7	-104475.465	-18478.62	0.0	0.0	0.0	0.0	0.0	0.0	0.0	0.0	0.0	0.0	0.0	0.0	0.0	0.0	146.13793103448276	0.0	0.05395494	-0.0793455	1.016904135	3.90656	0.8392999999999999	-1.0834599999999999	3278563.0	1776544947.483075	0.0	1.0	-1.0	-1.0	-1.0	-1.0	-1.0	-1.0	-1.0	-1.0	0.0	marker	peace	Peace	23	0418
-68193.18	-54948.645	-104458.995	-18461.16	0.0	0.0	0.0	0.0	0.0	0.0	0.0	0.0	0.0	0.0	0.0	0.0	0.0	0.0	146.13793103448276	0.0	0.05395494	-0.0793455	1.016904135	3.90656	0.8392999999999999	-1.0834599999999999	3278564.0	1776544947.486868	0.0	1.0	-1.0	-1.0	-1.0	-1.0	-1.0	-1.0	-1.0	-1.0	0.0	marker	peace	Peace	23	0418
-68217.705	-54937.665	-104448.015	-18422.415	0.0	0.0	0.0	0.0	0.0	0.0	0.0	0.0	0.0	0.0	0.0	0.0	0.0	0.0	146.13793103448276	0.0	0.05395494	-0.0793455	1.016904135	3.90656	0.8392999999999999	-1.0834599999999999	3278565.0	1776544947.48689	0.0	1.0	-1.0	-1.0	-1.0	-1.0	-1.0	-1.0	-1.0	-1.0	0.0	marker	peace	Peace	23	0418
-68204.7	-54933.93	-104483.385	-18448.875	0.0	0.0	0.0	0.0	0.0	0.0	0.0	0.0	0.0	0.0	0.0	0.0	0.0	0.0	146.13793103448276	0.0	0.055114605000000004	-0.0744627	1.02111555	3.3266799999999996	-0.2289	0.06104	3278566.0	1776544947.490916	0.0	1.0	-1.0	-1.0	-1.0	-1.0	-1.0	-1.0	-1.0	-1.0	0.0	marker	peace	Peace	23	0418
-68227.65	-54945.314999999995	-104526.98999999999	-18494.864999999998	0.0	0.0	0.0	0.0	0.0	0.0	0.0	0.0	0.0	0.0	0.0	0.0	0.0	0.0	146.13793103448276	0.0	0.055114605000000004	-0.0744627	1.02111555	3.3266799999999996	-0.2289	0.06104	3278567.0	1776544947.490932	0.0	1.0	-1.0	-1.0	-1.0	-1.0	-1.0	-1.0	-1.0	-1.0	0.0	marker	peace	Peace	23	0418
-68188.455	-54950.13	-104450.265	-18446.175	0.0	0.0	0.0	0.0	0.0	0.0	0.0	0.0	0.0	0.0	0.0	0.0	0.0	0.0	146.13793103448276	0.0	0.055114605000000004	-0.0744627	1.02111555	3.3266799999999996	-0.2289	0.06104	3278568.0	1776544947.494999	0.0	1.0	-1.0	-1.0	-1.0	-1.0	-1.0	-1.0	-1.0	-1.0	0.0	marker	peace	Peace	23	0418
-68188.77	-54960.03	-104421.15	-18440.954999999998	0.0	0.0	0.0	0.0	0.0	0.0	0.0	0.0	0.0	0.0	0.0	0.0	0.0	0.0	146.13793103448276	0.0	0.055114605000000004	-0.0744627	1.02111555	3.3266799999999996	-0.2289	0.06104	3278569.0	1776544947.495018	0.0	1.0	-1.0	-1.0	-1.0	-1.0	-1.0	-1.0	-1.0	-1.0	0.0	marker	peace	Peace	23	0418
-68193.855	-54960.525	-104411.79	-18432.855	0.0	0.0	0.0	0.0	0.0	0.0	0.0	0.0	0.0	0.0	0.0	0.0	0.0	0.0	146.13793103448276	0.0	0.055114605000000004	-0.0744627	1.02111555	3.3266799999999996	-0.2289	0.06104	3278570.0	1776544947.498906	0.0	1.0	-1.0	-1.0	-1.0	-1.0	-1.0	-1.0	-1.0	-1.0	0.0	marker	peace	Peace	23	0418
-68179.905	-54959.4	-104381.595	-18405.54	0.0	0.0	0.0	0.0	0.0	0.0	0.0	0.0	0.0	0.0	0.0	0.0	0.0	0.0	146.13793103448276	0.0	0.055114605000000004	-0.0744627	1.02111555	3.3266799999999996	-0.2289	0.06104	3278571.0	1776544947.498936	0.0	1.0	-1.0	-1.0	-1.0	-1.0	-1.0	-1.0	-1.0	-1.0	0.0	marker	peace	Peace	23	0418
-68219.055	-54961.92	-104428.845	-18445.86	0.0	0.0	0.0	0.0	0.0	0.0	0.0	0.0	0.0	0.0	0.0	0.0	0.0	0.0	146.13793103448276	0.0	0.055114605000000004	-0.0744627	1.02111555	3.3266799999999996	-0.2289	0.06104	3278572.0	1776544947.506175	0.0	1.0	-1.0	-1.0	-1.0	-1.0	-1.0	-1.0	-1.0	-1.0	0.0	marker	peace	Peace	23	0418
-68197.995	-54954.674999999996	-104469.795	-18452.79	0.0	0.0	0.0	0.0	0.0	0.0	0.0	0.0	0.0	0.0	0.0	0.0	0.0	0.0	146.13793103448276	0.0	0.055114605000000004	-0.0744627	1.02111555	3.3266799999999996	-0.2289	0.06104	3278573.0	1776544947.506198	0.0	1.0	-1.0	-1.0	-1.0	-1.0	-1.0	-1.0	-1.0	-1.0	0.0	marker	peace	Peace	23	0418
-68174.055	-54952.29	-104470.47	-18444.78	0.0	0.0	0.0	0.0	0.0	0.0	0.0	0.0	0.0	0.0	0.0	0.0	0.0	0.0	146.13793103448276	0.0	0.055114605000000004	-0.0744627	1.02111555	3.3266799999999996	-0.2289	0.06104	3278574.0	1776544947.507027	0.0	1.0	-1.0	-1.0	-1.0	-1.0	-1.0	-1.0	-1.0	-1.0	0.0	marker	peace	Peace	23	0418
-68157.0	-54956.43	-104451.03	-18441.63	0.0	0.0	0.0	0.0	0.0	0.0	0.0	0.0	0.0	0.0	0.0	0.0	0.0	0.0	146.13793103448276	0.0	0.055114605000000004	-0.0744627	1.02111555	3.3266799999999996	-0.2289	0.06104	3278575.0	1776544947.507063	0.0	1.0	-1.0	-1.0	-1.0	-1.0	-1.0	-1.0	-1.0	-1.0	0.0	marker	peace	Peace	23	0418
-68225.94	-54970.29	-104502.915	-18475.829999999998	0.0	0.0	0.0	0.0	0.0	0.0	0.0	0.0	0.0	0.0	0.0	0.0	0.0	0.0	146.13793103448276	0.0	0.05871567	-0.075988575	1.01818587	2.62472	-0.763	0.6103999999999999	3278576.0	1776544947.510959	0.0	1.0	-1.0	-1.0	-1.0	-1.0	-1.0	-1.0	-1.0	-1.0	0.0	marker	peace	Peace	23	0418
-68230.34999999999	-54965.07	-104498.415	-18466.739999999998	0.0	0.0	0.0	0.0	0.0	0.0	0.0	0.0	0.0	0.0	0.0	0.0	0.0	0.0	146.13793103448276	0.0	0.05871567	-0.075988575	1.01818587	2.62472	-0.763	0.6103999999999999	3278577.0	1776544947.510976	0.0	1.0	-1.0	-1.0	-1.0	-1.0	-1.0	-1.0	-1.0	-1.0	0.0	marker	peace	Peace	23	0418
-68218.83	-54871.38	-104450.04	-18439.11	0.0	0.0	0.0	0.0	0.0	0.0	0.0	0.0	0.0	0.0	0.0	0.0	0.0	0.0	146.13793103448276	0.0	0.05871567	-0.075988575	1.01818587	2.62472	-0.763	0.6103999999999999	3278578.0	1776544947.517443	0.0	1.0	-1.0	-1.0	-1.0	-1.0	-1.0	-1.0	-1.0	-1.0	0.0	marker	peace	Peace	23	0418
-68166.405	-54827.82	-104370.165	-18398.835	0.0	0.0	0.0	0.0	0.0	0.0	0.0	0.0	0.0	0.0	0.0	0.0	0.0	0.0	146.13793103448276	0.0	0.05871567	-0.075988575	1.01818587	2.62472	-0.763	0.6103999999999999	3278579.0	1776544947.517461	0.0	1.0	-1.0	-1.0	-1.0	-1.0	-1.0	-1.0	-1.0	-1.0	0.0	marker	peace	Peace	23	0418
-68150.565	-54824.579999999994	-104366.34	-18402.66	0.0	0.0	0.0	0.0	0.0	0.0	0.0	0.0	0.0	0.0	0.0	0.0	0.0	0.0	146.13793103448276	0.0	0.05871567	-0.075988575	1.01818587	2.62472	-0.763	0.6103999999999999	3278580.0	1776544947.518974	0.0	1.0	-1.0	-1.0	-1.0	-1.0	-1.0	-1.0	-1.0	-1.0	0.0	marker	peace	Peace	23	0418
-68146.92	-54818.009999999995	-104428.39499999999	-18421.335	0.0	0.0	0.0	0.0	0.0	0.0	0.0	0.0	0.0	0.0	0.0	0.0	0.0	0.0	146.13793103448276	0.0	0.05871567	-0.075988575	1.01818587	2.62472	-0.763	0.6103999999999999	3278581.0	1776544947.518989	0.0	1.0	-1.0	-1.0	-1.0	-1.0	-1.0	-1.0	-1.0	-1.0	0.0	marker	peace	Peace	23	0418
-68187.105	-54811.665	-104513.355	-18488.835	0.0	0.0	0.0	0.0	0.0	0.0	0.0	0.0	0.0	0.0	0.0	0.0	0.0	0.0	146.13793103448276	0.0	0.05871567	-0.075988575	1.01818587	2.62472	-0.763	0.6103999999999999	3278582.0	1776544947.523077	0.0	1.0	-1.0	-1.0	-1.0	-1.0	-1.0	-1.0	-1.0	-1.0	0.0	marker	peace	Peace	23	0418
-68237.81999999999	-54806.895	-104499.405	-18462.465	0.0	0.0	0.0	0.0	0.0	0.0	0.0	0.0	0.0	0.0	0.0	0.0	0.0	0.0	146.13793103448276	0.0	0.05871567	-0.075988575	1.01818587	2.62472	-0.763	0.6103999999999999	3278583.0	1776544947.523097	0.0	1.0	-1.0	-1.0	-1.0	-1.0	-1.0	-1.0	-1.0	-1.0	0.0	marker	peace	Peace	23	0418
-68218.69499999999	-54800.865	-104450.4	-18427.59	0.0	0.0	0.0	0.0	0.0	0.0	0.0	0.0	0.0	0.0	0.0	0.0	0.0	0.0	146.13793103448276	0.0	0.05871567	-0.075988575	1.01818587	2.62472	-0.763	0.6103999999999999	3278584.0	1776544947.526962	0.0	1.0	-1.0	-1.0	-1.0	-1.0	-1.0	-1.0	-1.0	-1.0	0.0	marker	peace	Peace	23	0418
-68238.09	-54811.215	-104474.7	-18497.88	0.0	0.0	0.0	0.0	0.0	0.0	0.0	0.0	0.0	0.0	0.0	0.0	0.0	0.0	146.13793103448276	0.0	0.05871567	-0.075988575	1.01818587	2.62472	-0.763	0.6103999999999999	3278585.0	1776544947.526978	0.0	1.0	-1.0	-1.0	-1.0	-1.0	-1.0	-1.0	-1.0	-1.0	0.0	marker	peace	Peace	23	0418
-68239.44	-54829.259999999995	-104419.17	-18458.145	0.0	0.0	0.0	0.0	0.0	0.0	0.0	0.0	0.0	0.0	0.0	0.0	0.0	0.0	146.13793103448276	0.0	0.05908188	-0.07922343	1.01501205	2.62472	-0.35097999999999996	1.1444999999999999	3278586.0	1776544947.531185	0.0	1.0	-1.0	-1.0	-1.0	-1.0	-1.0	-1.0	-1.0	-1.0	0.0	marker	peace	Peace	23	0418
-68152.815	-54829.17	-104364.54	-18386.864999999998	0.0	0.0	0.0	0.0	0.0	0.0	0.0	0.0	0.0	0.0	0.0	0.0	0.0	0.0	146.13793103448276	0.0	0.05908188	-0.07922343	1.01501205	2.62472	-0.35097999999999996	1.1444999999999999	3278587.0	1776544947.531215	0.0	1.0	-1.0	-1.0	-1.0	-1.0	-1.0	-1.0	-1.0	-1.0	0.0	marker	peace	Peace	23	0418
-68166.58499999999	-54831.735	-104443.065	-18432.045	0.0	0.0	0.0	0.0	0.0	0.0	0.0	0.0	0.0	0.0	0.0	0.0	0.0	0.0	146.13793103448276	0.0	0.05908188	-0.07922343	1.01501205	2.62472	-0.35097999999999996	1.1444999999999999	3278588.0	1776544947.535086	0.0	1.0	-1.0	-1.0	-1.0	-1.0	-1.0	-1.0	-1.0	-1.0	0.0	marker	peace	Peace	23	0418
-68181.03	-54828.36	-104426.28	-18450.315	0.0	0.0	0.0	0.0	0.0	0.0	0.0	0.0	0.0	0.0	0.0	0.0	0.0	0.0	146.13793103448276	0.0	0.05908188	-0.07922343	1.01501205	2.62472	-0.35097999999999996	1.1444999999999999	3278589.0	1776544947.535112	0.0	1.0	-1.0	-1.0	-1.0	-1.0	-1.0	-1.0	-1.0	-1.0	0.0	marker	peace	Peace	23	0418
-68178.555	-54824.22	-104398.37999999999	-18415.89	0.0	0.0	0.0	0.0	0.0	0.0	0.0	0.0	0.0	0.0	0.0	0.0	0.0	0.0	146.13793103448276	0.0	0.05908188	-0.07922343	1.01501205	2.62472	-0.35097999999999996	1.1444999999999999	3278590.0	1776544947.540895	0.0	1.0	-1.0	-1.0	-1.0	-1.0	-1.0	-1.0	-1.0	-1.0	0.0	marker	peace	Peace	23	0418
-68234.44499999999	-54836.954999999994	-104502.64499999999	-18477.719999999998	0.0	0.0	0.0	0.0	0.0	0.0	0.0	0.0	0.0	0.0	0.0	0.0	0.0	0.0	146.13793103448276	0.0	0.05908188	-0.07922343	1.01501205	2.62472	-0.35097999999999996	1.1444999999999999	3278591.0	1776544947.54091	0.0	1.0	-1.0	-1.0	-1.0	-1.0	-1.0	-1.0	-1.0	-1.0	0.0	marker	peace	Peace	23	0418
-68239.215	-54841.86	-104534.81999999999	-18481.005	0.0	0.0	0.0	0.0	0.0	0.0	0.0	0.0	0.0	0.0	0.0	0.0	0.0	0.0	146.13793103448276	0.0	0.05908188	-0.07922343	1.01501205	2.62472	-0.35097999999999996	1.1444999999999999	3278592.0	1776544947.543976	0.0	1.0	-1.0	-1.0	-1.0	-1.0	-1.0	-1.0	-1.0	-1.0	0.0	marker	peace	Peace	23	0418
-68195.79	-54841.454999999994	-104493.915	-18453.87	0.0	0.0	0.0	0.0	0.0	0.0	0.0	0.0	0.0	0.0	0.0	0.0	0.0	0.0	146.13793103448276	0.0	0.05908188	-0.07922343	1.01501205	2.62472	-0.35097999999999996	1.1444999999999999	3278593.0	1776544947.54399	0.0	1.0	-1.0	-1.0	-1.0	-1.0	-1.0	-1.0	-1.0	-1.0	0.0	marker	peace	Peace	23	0418
-68203.26	-54840.825	-104458.95	-18463.14	0.0	0.0	0.0	0.0	0.0	0.0	0.0	0.0	0.0	0.0	0.0	0.0	0.0	0.0	146.13793103448276	0.0	0.05908188	-0.07922343	1.01501205	2.62472	-0.35097999999999996	1.1444999999999999	3278594.0	1776544947.547071	0.0	1.0	-1.0	-1.0	-1.0	-1.0	-1.0	-1.0	-1.0	-1.0	0.0	marker	peace	Peace	23	0418
-68186.11499999999	-54841.229999999996	-104418.26999999999	-18447.795	0.0	0.0	0.0	0.0	0.0	0.0	0.0	0.0	0.0	0.0	0.0	0.0	0.0	0.0	146.13793103448276	0.0	0.05908188	-0.07922343	1.01501205	2.62472	-0.35097999999999996	1.1444999999999999	3278595.0	1776544947.547091	0.0	1.0	-1.0	-1.0	-1.0	-1.0	-1.0	-1.0	-1.0	-1.0	0.0	marker	peace	Peace	23	0418
-68191.69499999999	-54843.884999999995	-104430.87	-18433.44	0.0	0.0	0.0	0.0	0.0	0.0	0.0	0.0	0.0	0.0	0.0	0.0	0.0	0.0	146.13793103448276	0.0	0.056945655	-0.083312775	1.013242035	2.47212	-0.2289	1.4191799999999999	3278596.0	1776544947.551213	0.0	1.0	-1.0	-1.0	-1.0	-1.0	-1.0	-1.0	-1.0	-1.0	0.0	marker	peace	Peace	23	0418
-68193.0	-54845.1	-104460.84	-18417.42	0.0	0.0	0.0	0.0	0.0	0.0	0.0	0.0	0.0	0.0	0.0	0.0	0.0	0.0	146.13793103448276	0.0	0.056945655	-0.083312775	1.013242035	2.47212	-0.2289	1.4191799999999999	3278597.0	1776544947.551233	0.0	1.0	-1.0	-1.0	-1.0	-1.0	-1.0	-1.0	-1.0	-1.0	0.0	marker	peace	Peace	23	0418
-68155.56	-54839.025	-104424.03	-18402.12	0.0	0.0	0.0	0.0	0.0	0.0	0.0	0.0	0.0	0.0	0.0	0.0	0.0	0.0	146.13793103448276	0.0	0.056945655	-0.083312775	1.013242035	2.47212	-0.2289	1.4191799999999999	3278598.0	1776544947.559332	0.0	1.0	-1.0	-1.0	-1.0	-1.0	-1.0	-1.0	-1.0	-1.0	0.0	marker	peace	Peace	23	0418
-68194.08	-54839.52	-104490.62999999999	-18455.445	0.0	0.0	0.0	0.0	0.0	0.0	0.0	0.0	0.0	0.0	0.0	0.0	0.0	0.0	146.13793103448276	0.0	0.056945655	-0.083312775	1.013242035	2.47212	-0.2289	1.4191799999999999	3278599.0	1776544947.559355	0.0	1.0	-1.0	-1.0	-1.0	-1.0	-1.0	-1.0	-1.0	-1.0	0.0	marker	peace	Peace	23	0418
-68219.775	-54839.835	-104492.11499999999	-18469.89	0.0	0.0	0.0	0.0	0.0	0.0	0.0	0.0	0.0	0.0	0.0	0.0	0.0	0.0	146.13793103448276	0.0	0.056945655	-0.083312775	1.013242035	2.47212	-0.2289	1.4191799999999999	3278600.0	1776544947.559382	0.0	1.0	-1.0	-1.0	-1.0	-1.0	-1.0	-1.0	-1.0	-1.0	0.0	marker	peace	Peace	23	0418
-68190.48	-54842.67	-104465.655	-18460.89	0.0	0.0	0.0	0.0	0.0	0.0	0.0	0.0	0.0	0.0	0.0	0.0	0.0	0.0	146.13793103448276	0.0	0.056945655	-0.083312775	1.013242035	2.47212	-0.2289	1.4191799999999999	3278601.0	1776544947.559393	0.0	1.0	-1.0	-1.0	-1.0	-1.0	-1.0	-1.0	-1.0	-1.0	0.0	marker	peace	Peace	23	0418
-68168.79	-54848.655	-104420.565	-18438.48	0.0	0.0	0.0	0.0	0.0	0.0	0.0	0.0	0.0	0.0	0.0	0.0	0.0	0.0	146.13793103448276	0.0	0.056945655	-0.083312775	1.013242035	2.47212	-0.2289	1.4191799999999999	3278602.0	1776544947.565551	0.0	1.0	-1.0	-1.0	-1.0	-1.0	-1.0	-1.0	-1.0	-1.0	0.0	marker	peace	Peace	23	0418
-68184.315	-54859.14	-104402.295	-18436.59	0.0	0.0	0.0	0.0	0.0	0.0	0.0	0.0	0.0	0.0	0.0	0.0	0.0	0.0	146.13793103448276	0.0	0.056945655	-0.083312775	1.013242035	2.47212	-0.2289	1.4191799999999999	3278603.0	1776544947.565584	0.0	1.0	-1.0	-1.0	-1.0	-1.0	-1.0	-1.0	-1.0	-1.0	0.0	marker	peace	Peace	23	0418
-68192.955	-54868.454999999994	-104394.59999999999	-18439.245	0.0	0.0	0.0	0.0	0.0	0.0	0.0	0.0	0.0	0.0	0.0	0.0	0.0	0.0	146.13793103448276	0.0	0.056945655	-0.083312775	1.013242035	2.47212	-0.2289	1.4191799999999999	3278604.0	1776544947.567293	0.0	1.0	-1.0	-1.0	-1.0	-1.0	-1.0	-1.0	-1.0	-1.0	0.0	marker	peace	Peace	23	0418
-68211.72	-54869.805	-104353.515	-18421.829999999998	0.0	0.0	0.0	0.0	0.0	0.0	0.0	0.0	0.0	0.0	0.0	0.0	0.0	0.0	146.13793103448276	0.0	0.056945655	-0.083312775	1.013242035	2.47212	-0.2289	1.4191799999999999	3278605.0	1776544947.567319	0.0	1.0	-1.0	-1.0	-1.0	-1.0	-1.0	-1.0	-1.0	-1.0	0.0	marker	peace	Peace	23	0418
-68181.435	-54874.755	-104396.355	-18421.92	0.0	0.0	0.0	0.0	0.0	0.0	0.0	0.0	0.0	0.0	0.0	0.0	0.0	0.0	146.13793103448276	0.0	0.054748395	-0.088561785	1.016537925	1.9227599999999998	-0.74774	0.9308599999999999	3278606.0	1776544947.571112	0.0	1.0	-1.0	-1.0	-1.0	-1.0	-1.0	-1.0	-1.0	-1.0	0.0	marker	peace	Peace	23	0418
-68111.45999999999	-54882.18	-104434.73999999999	-18412.965	0.0	0.0	0.0	0.0	0.0	0.0	0.0	0.0	0.0	0.0	0.0	0.0	0.0	0.0	146.13793103448276	0.0	0.054748395	-0.088561785	1.016537925	1.9227599999999998	-0.74774	0.9308599999999999	3278607.0	1776544947.57114	0.0	1.0	-1.0	-1.0	-1.0	-1.0	-1.0	-1.0	-1.0	-1.0	0.0	marker	peace	Peace	23	0418
-68085.18	-54889.604999999996	-104404.72499999999	-18371.969999999998	0.0	0.0	0.0	0.0	0.0	0.0	0.0	0.0	0.0	0.0	0.0	0.0	0.0	0.0	146.13793103448276	0.0	0.054748395	-0.088561785	1.016537925	1.9227599999999998	-0.74774	0.9308599999999999	3278608.0	1776544947.575479	0.0	1.0	-1.0	-1.0	-1.0	-1.0	-1.0	-1.0	-1.0	-1.0	0.0	marker	peace	Peace	23	0418
-68171.4	-54902.655	-104505.165	-18452.835	0.0	0.0	0.0	0.0	0.0	0.0	0.0	0.0	0.0	0.0	0.0	0.0	0.0	0.0	146.13793103448276	0.0	0.054748395	-0.088561785	1.016537925	1.9227599999999998	-0.74774	0.9308599999999999	3278609.0	1776544947.575498	0.0	1.0	-1.0	-1.0	-1.0	-1.0	-1.0	-1.0	-1.0	-1.0	0.0	marker	peace	Peace	23	0418
-68211.18	-54915.57	-104542.605	-18505.844999999998	0.0	0.0	0.0	0.0	0.0	0.0	0.0	0.0	0.0	0.0	0.0	0.0	0.0	0.0	146.13793103448276	0.0	0.054748395	-0.088561785	1.016537925	1.9227599999999998	-0.74774	0.9308599999999999	3278610.0	1776544947.57988	0.0	1.0	-1.0	-1.0	-1.0	-1.0	-1.0	-1.0	-1.0	-1.0	0.0	marker	peace	Peace	23	0418
-68170.36499999999	-54912.465	-104442.56999999999	-18427.59	0.0	0.0	0.0	0.0	0.0	0.0	0.0	0.0	0.0	0.0	0.0	0.0	0.0	0.0	146.13793103448276	0.0	0.054748395	-0.088561785	1.016537925	1.9227599999999998	-0.74774	0.9308599999999999	3278611.0	1776544947.5799	0.0	1.0	-1.0	-1.0	-1.0	-1.0	-1.0	-1.0	-1.0	-1.0	0.0	marker	peace	Peace	23	0418
-68082.705	-54900.09	-104340.33	-18339.704999999998	0.0	0.0	0.0	0.0	0.0	0.0	0.0	0.0	0.0	0.0	0.0	0.0	0.0	0.0	146.13793103448276	0.0	0.054748395	-0.088561785	1.016537925	1.9227599999999998	-0.74774	0.9308599999999999	3278612.0	1776544947.583301	0.0	1.0	-1.0	-1.0	-1.0	-1.0	-1.0	-1.0	-1.0	-1.0	0.0	marker	peace	Peace	23	0418
-68146.65	-54889.244999999995	-104383.44	-18385.11	0.0	0.0	0.0	0.0	0.0	0.0	0.0	0.0	0.0	0.0	0.0	0.0	0.0	0.0	146.13793103448276	0.0	0.054748395	-0.088561785	1.016537925	1.9227599999999998	-0.74774	0.9308599999999999	3278613.0	1776544947.583331	0.0	1.0	-1.0	-1.0	-1.0	-1.0	-1.0	-1.0	-1.0	-1.0	0.0	marker	peace	Peace	23	0418
-68208.795	-54873.09	-104429.7	-18439.605	0.0	0.0	0.0	0.0	0.0	0.0	0.0	0.0	0.0	0.0	0.0	0.0	0.0	0.0	146.13793103448276	0.0	0.054748395	-0.088561785	1.016537925	1.9227599999999998	-0.74774	0.9308599999999999	3278614.0	1776544947.587367	0.0	1.0	-1.0	-1.0	-1.0	-1.0	-1.0	-1.0	-1.0	-1.0	0.0	marker	peace	Peace	23	0418
-68175.09	-54862.47	-104410.665	-18434.114999999998	0.0	0.0	0.0	0.0	0.0	0.0	0.0	0.0	0.0	0.0	0.0	0.0	0.0	0.0	146.13793103448276	0.0	0.054748395	-0.088561785	1.016537925	1.9227599999999998	-0.74774	0.9308599999999999	3278615.0	1776544947.587394	0.0	1.0	-1.0	-1.0	-1.0	-1.0	-1.0	-1.0	-1.0	-1.0	0.0	marker	peace	Peace	23	0418
-68237.28	-54868.229999999996	-104476.59	-18485.325	0.0	0.0	0.0	0.0	0.0	0.0	0.0	0.0	0.0	0.0	0.0	0.0	0.0	0.0	146.13793103448276	0.0	0.056457375000000004	-0.0939939	1.01635482	3.64714	-0.54936	0.09156	3278616.0	1776544947.591252	0.0	1.0	-1.0	-1.0	-1.0	-1.0	-1.0	-1.0	-1.0	-1.0	0.0	marker	peace	Peace	23	0418
-68295.33	-54876.42	-104557.815	-18528.3	0.0	0.0	0.0	0.0	0.0	0.0	0.0	0.0	0.0	0.0	0.0	0.0	0.0	0.0	146.13793103448276	0.0	0.056457375000000004	-0.0939939	1.01635482	3.64714	-0.54936	0.09156	3278617.0	1776544947.591271	0.0	1.0	-1.0	-1.0	-1.0	-1.0	-1.0	-1.0	-1.0	-1.0	0.0	marker	peace	Peace	23	0418
-68244.48	-54873.09	-104520.555	-18492.165	0.0	0.0	0.0	0.0	0.0	0.0	0.0	0.0	0.0	0.0	0.0	0.0	0.0	0.0	146.13793103448276	0.0	0.056457375000000004	-0.0939939	1.01635482	3.64714	-0.54936	0.09156	3278618.0	1776544947.59515	0.0	1.0	-1.0	-1.0	-1.0	-1.0	-1.0	-1.0	-1.0	-1.0	0.0	marker	peace	Peace	23	0418
-68222.565	-54871.244999999995	-104484.015	-18469.17	0.0	0.0	0.0	0.0	0.0	0.0	0.0	0.0	0.0	0.0	0.0	0.0	0.0	0.0	146.13793103448276	0.0	0.056457375000000004	-0.0939939	1.01635482	3.64714	-0.54936	0.09156	3278619.0	1776544947.595163	0.0	1.0	-1.0	-1.0	-1.0	-1.0	-1.0	-1.0	-1.0	-1.0	0.0	marker	peace	Peace	23	0418
-68219.595	-54871.38	-104483.79	-18466.425	0.0	0.0	0.0	0.0	0.0	0.0	0.0	0.0	0.0	0.0	0.0	0.0	0.0	0.0	146.13793103448276	0.0	0.056457375000000004	-0.0939939	1.01635482	3.64714	-0.54936	0.09156	3278620.0	1776544947.599283	0.0	1.0	-1.0	-1.0	-1.0	-1.0	-1.0	-1.0	-1.0	-1.0	0.0	marker	peace	Peace	23	0418
-68193.315	-54860.985	-104461.965	-18447.344999999998	0.0	0.0	0.0	0.0	0.0	0.0	0.0	0.0	0.0	0.0	0.0	0.0	0.0	0.0	146.13793103448276	0.0	0.056457375000000004	-0.0939939	1.01635482	3.64714	-0.54936	0.09156	3278621.0	1776544947.599313	0.0	1.0	-1.0	-1.0	-1.0	-1.0	-1.0	-1.0	-1.0	-1.0	0.0	marker	peace	Peace	23	0418
-68197.41	-54852.615	-104450.94	-18431.91	0.0	0.0	0.0	0.0	0.0	0.0	0.0	0.0	0.0	0.0	0.0	0.0	0.0	0.0	146.13793103448276	0.0	0.056457375000000004	-0.0939939	1.01635482	3.64714	-0.54936	0.09156	3278622.0	1776544947.603191	0.0	1.0	-1.0	-1.0	-1.0	-1.0	-1.0	-1.0	-1.0	-1.0	0.0	marker	peace	Peace	23	0418
-68206.05	-54863.28	-104472.045	-18449.145	0.0	0.0	0.0	0.0	0.0	0.0	0.0	0.0	0.0	0.0	0.0	0.0	0.0	0.0	146.13793103448276	0.0	0.056457375000000004	-0.0939939	1.01635482	3.64714	-0.54936	0.09156	3278623.0	1776544947.603222	0.0	1.0	-1.0	-1.0	-1.0	-1.0	-1.0	-1.0	-1.0	-1.0	0.0	marker	peace	Peace	23	0418
-68161.455	-54869.49	-104460.075	-18463.68	0.0	0.0	0.0	0.0	0.0	0.0	0.0	0.0	0.0	0.0	0.0	0.0	0.0	0.0	146.13793103448276	0.0	0.056457375000000004	-0.0939939	1.01635482	3.64714	-0.54936	0.09156	3278624.0	1776544947.607232	0.0	1.0	-1.0	-1.0	-1.0	-1.0	-1.0	-1.0	-1.0	-1.0	0.0	marker	peace	Peace	23	0418
-68131.395	-54868.545	-104438.205	-18453.059999999998	0.0	0.0	0.0	0.0	0.0	0.0	0.0	0.0	0.0	0.0	0.0	0.0	0.0	0.0	146.13793103448276	0.0	0.056457375000000004	-0.0939939	1.01635482	3.64714	-0.54936	0.09156	3278625.0	1776544947.607251	0.0	1.0	-1.0	-1.0	-1.0	-1.0	-1.0	-1.0	-1.0	-1.0	0.0	marker	peace	Peace	23	0418
-68118.345	-54865.215	-104356.665	-18337.815	0.0	0.0	0.0	0.0	0.0	0.0	0.0	0.0	0.0	0.0	0.0	0.0	0.0	0.0	146.13793103448276	0.0	0.06579573	-0.09503149500000001	1.004941275	4.15072	0.79352	-0.79352	3278626.0	1776544947.611294	0.0	1.0	-1.0	-1.0	-1.0	-1.0	-1.0	-1.0	-1.0	-1.0	0.0	marker	peace	Peace	23	0418
-68120.19	-54879.479999999996	-104345.19	-18325.17	0.0	0.0	0.0	0.0	0.0	0.0	0.0	0.0	0.0	0.0	0.0	0.0	0.0	0.0	146.13793103448276	0.0	0.06579573	-0.09503149500000001	1.004941275	4.15072	0.79352	-0.79352	3278627.0	1776544947.611307	0.0	1.0	-1.0	-1.0	-1.0	-1.0	-1.0	-1.0	-1.0	-1.0	0.0	marker	peace	Peace	23	0418
-68269.59	-54895.005	-104492.205	-18497.024999999998	0.0	0.0	0.0	0.0	0.0	0.0	0.0	0.0	0.0	0.0	0.0	0.0	0.0	0.0	146.13793103448276	0.0	0.06579573	-0.09503149500000001	1.004941275	4.15072	0.79352	-0.79352	3278628.0	1776544947.615388	0.0	1.0	-1.0	-1.0	-1.0	-1.0	-1.0	-1.0	-1.0	-1.0	0.0	marker	peace	Peace	23	0418
-68237.55	-54889.65	-104468.265	-18461.61	0.0	0.0	0.0	0.0	0.0	0.0	0.0	0.0	0.0	0.0	0.0	0.0	0.0	0.0	146.13793103448276	0.0	0.06579573	-0.09503149500000001	1.004941275	4.15072	0.79352	-0.79352	3278629.0	1776544947.615421	0.0	1.0	-1.0	-1.0	-1.0	-1.0	-1.0	-1.0	-1.0	-1.0	0.0	marker	peace	Peace	23	0418
-68207.67	-54883.125	-104453.595	-18446.579999999998	0.0	0.0	0.0	0.0	0.0	0.0	0.0	0.0	0.0	0.0	0.0	0.0	0.0	0.0	146.13793103448276	0.0	0.06579573	-0.09503149500000001	1.004941275	4.15072	0.79352	-0.79352	3278630.0	1776544947.619478	0.0	1.0	-1.0	-1.0	-1.0	-1.0	-1.0	-1.0	-1.0	-1.0	0.0	marker	peace	Peace	23	0418
-68250.285	-54881.145	-104459.48999999999	-18463.545	0.0	0.0	0.0	0.0	0.0	0.0	0.0	0.0	0.0	0.0	0.0	0.0	0.0	0.0	146.13793103448276	0.0	0.06579573	-0.09503149500000001	1.004941275	4.15072	0.79352	-0.79352	3278631.0	1776544947.6195	0.0	1.0	-1.0	-1.0	-1.0	-1.0	-1.0	-1.0	-1.0	-1.0	0.0	marker	peace	Peace	23	0418
-68184.09	-54882.225	-104435.01	-18426.059999999998	0.0	0.0	0.0	0.0	0.0	0.0	0.0	0.0	0.0	0.0	0.0	0.0	0.0	0.0	146.13793103448276	0.0	0.06579573	-0.09503149500000001	1.004941275	4.15072	0.79352	-0.79352	3278632.0	1776544947.624483	0.0	1.0	-1.0	-1.0	-1.0	-1.0	-1.0	-1.0	-1.0	-1.0	0.0	marker	peace	Peace	23	0418
-68155.065	-54883.619999999995	-104437.845	-18431.594999999998	0.0	0.0	0.0	0.0	0.0	0.0	0.0	0.0	0.0	0.0	0.0	0.0	0.0	0.0	146.13793103448276	0.0	0.06579573	-0.09503149500000001	1.004941275	4.15072	0.79352	-0.79352	3278633.0	1776544947.624509	0.0	1.0	-1.0	-1.0	-1.0	-1.0	-1.0	-1.0	-1.0	-1.0	0.0	marker	peace	Peace	23	0418
-68131.935	-54888.39	-104379.75	-18410.94	0.0	0.0	0.0	0.0	0.0	0.0	0.0	0.0	0.0	0.0	0.0	0.0	0.0	0.0	146.13793103448276	0.0	0.06579573	-0.09503149500000001	1.004941275	4.15072	0.79352	-0.79352	3278634.0	1776544947.627272	0.0	1.0	-1.0	-1.0	-1.0	-1.0	-1.0	-1.0	-1.0	-1.0	0.0	marker	peace	Peace	23	0418
-68211.36	-54898.424999999996	-104437.44	-18455.67	0.0	0.0	0.0	0.0	0.0	0.0	0.0	0.0	0.0	0.0	0.0	0.0	0.0	0.0	146.13793103448276	0.0	0.06579573	-0.09503149500000001	1.004941275	4.15072	0.79352	-0.79352	3278635.0	1776544947.627287	0.0	1.0	-1.0	-1.0	-1.0	-1.0	-1.0	-1.0	-1.0	-1.0	0.0	marker	peace	Peace	23	0418
-68209.73999999999	-54909.63	-104490.765	-18459.405	0.0	0.0	0.0	0.0	0.0	0.0	0.0	0.0	0.0	0.0	0.0	0.0	0.0	0.0	146.13793103448276	0.0	0.06292708500000001	-0.097656	1.00597887	2.57894	1.0834599999999999	-1.23606	3278636.0	1776544947.632943	0.0	1.0	-1.0	-1.0	-1.0	-1.0	-1.0	-1.0	-1.0	-1.0	0.0	marker	peace	Peace	23	0418
-68185.53	-54910.485	-104473.665	-18433.71	0.0	0.0	0.0	0.0	0.0	0.0	0.0	0.0	0.0	0.0	0.0	0.0	0.0	0.0	146.13793103448276	0.0	0.06292708500000001	-0.097656	1.00597887	2.57894	1.0834599999999999	-1.23606	3278637.0	1776544947.632967	0.0	1.0	-1.0	-1.0	-1.0	-1.0	-1.0	-1.0	-1.0	-1.0	0.0	marker	peace	Peace	23	0418
-68202.63	-54922.095	-104471.595	-18450.45	0.0	0.0	0.0	0.0	0.0	0.0	0.0	0.0	0.0	0.0	0.0	0.0	0.0	0.0	146.13793103448276	0.0	0.06292708500000001	-0.097656	1.00597887	2.57894	1.0834599999999999	-1.23606	3278638.0	1776544947.637346	0.0	1.0	-1.0	-1.0	-1.0	-1.0	-1.0	-1.0	-1.0	-1.0	0.0	marker	peace	Peace	23	0418
-68221.98	-54917.28	-104486.355	-18488.565	0.0	0.0	0.0	0.0	0.0	0.0	0.0	0.0	0.0	0.0	0.0	0.0	0.0	0.0	146.13793103448276	0.0	0.06292708500000001	-0.097656	1.00597887	2.57894	1.0834599999999999	-1.23606	3278639.0	1776544947.637367	0.0	1.0	-1.0	-1.0	-1.0	-1.0	-1.0	-1.0	-1.0	-1.0	0.0	marker	peace	Peace	23	0418
-68228.19	-54904.095	-104477.805	-18480.87	0.0	0.0	0.0	0.0	0.0	0.0	0.0	0.0	0.0	0.0	0.0	0.0	0.0	0.0	146.13793103448276	0.0	0.06292708500000001	-0.097656	1.00597887	2.57894	1.0834599999999999	-1.23606	3278640.0	1776544947.640152	0.0	1.0	-1.0	-1.0	-1.0	-1.0	-1.0	-1.0	-1.0	-1.0	0.0	marker	peace	Peace	23	0418
-68192.28	-54891.0	-104477.89499999999	-18451.844999999998	0.0	0.0	0.0	0.0	0.0	0.0	0.0	0.0	0.0	0.0	0.0	0.0	0.0	0.0	146.13793103448276	0.0	0.06292708500000001	-0.097656	1.00597887	2.57894	1.0834599999999999	-1.23606	3278641.0	1776544947.64017	0.0	1.0	-1.0	-1.0	-1.0	-1.0	-1.0	-1.0	-1.0	-1.0	0.0	marker	peace	Peace	23	0418
-68186.385	-54891.27	-104503.00499999999	-18463.905	0.0	0.0	0.0	0.0	0.0	0.0	0.0	0.0	0.0	0.0	0.0	0.0	0.0	0.0	146.13793103448276	0.0	0.06292708500000001	-0.097656	1.00597887	2.57894	1.0834599999999999	-1.23606	3278642.0	1776544947.643387	0.0	1.0	-1.0	-1.0	-1.0	-1.0	-1.0	-1.0	-1.0	-1.0	0.0	marker	peace	Peace	23	0418
-68198.355	-54898.604999999996	-104462.90999999999	-18452.024999999998	0.0	0.0	0.0	0.0	0.0	0.0	0.0	0.0	0.0	0.0	0.0	0.0	0.0	0.0	146.13793103448276	0.0	0.06292708500000001	-0.097656	1.00597887	2.57894	1.0834599999999999	-1.23606	3278643.0	1776544947.6434	0.0	1.0	-1.0	-1.0	-1.0	-1.0	-1.0	-1.0	-1.0	-1.0	0.0	marker	peace	Peace	23	0418
-68208.84	-54890.415	-104439.33	-18437.309999999998	0.0	0.0	0.0	0.0	0.0	0.0	0.0	0.0	0.0	0.0	0.0	0.0	0.0	0.0	146.13793103448276	0.0	0.06292708500000001	-0.097656	1.00597887	2.57894	1.0834599999999999	-1.23606	3278644.0	1776544947.649741	0.0	1.0	-1.0	-1.0	-1.0	-1.0	-1.0	-1.0	-1.0	-1.0	0.0	marker	peace	Peace	23	0418
-68206.455	-54890.954999999994	-104443.245	-18450.765	0.0	0.0	0.0	0.0	0.0	0.0	0.0	0.0	0.0	0.0	0.0	0.0	0.0	0.0	146.13793103448276	0.0	0.06292708500000001	-0.097656	1.00597887	2.57894	1.0834599999999999	-1.23606	3278645.0	1776544947.649802	0.0	1.0	-1.0	-1.0	-1.0	-1.0	-1.0	-1.0	-1.0	-1.0	0.0	marker	peace	Peace	23	0418
-68186.83499999999	-54883.305	-104427.54	-18453.285	0.0	0.0	0.0	0.0	0.0	0.0	0.0	0.0	0.0	0.0	0.0	0.0	0.0	0.0	146.13793103448276	0.0	0.058532565	-0.095397705	1.005429555	2.5179	1.77016	-2.10588	3278646.0	1776544947.655019	0.0	1.0	-1.0	-1.0	-1.0	-1.0	-1.0	-1.0	-1.0	-1.0	0.0	marker	peace	Peace	23	0418
-68149.70999999999	-54868.32	-104357.43	-18399.465	0.0	0.0	0.0	0.0	0.0	0.0	0.0	0.0	0.0	0.0	0.0	0.0	0.0	0.0	146.13793103448276	0.0	0.058532565	-0.095397705	1.005429555	2.5179	1.77016	-2.10588	3278647.0	1776544947.655042	0.0	1.0	-1.0	-1.0	-1.0	-1.0	-1.0	-1.0	-1.0	-1.0	0.0	marker	peace	Peace	23	0418
-68117.535	-54855.854999999996	-104358.915	-18363.555	0.0	0.0	0.0	0.0	0.0	0.0	0.0	0.0	0.0	0.0	0.0	0.0	0.0	0.0	146.13793103448276	0.0	0.058532565	-0.095397705	1.005429555	2.5179	1.77016	-2.10588	3278648.0	1776544947.659089	0.0	1.0	-1.0	-1.0	-1.0	-1.0	-1.0	-1.0	-1.0	-1.0	0.0	marker	peace	Peace	23	0418
-68189.22	-54855.314999999995	-104477.355	-18441.945	0.0	0.0	0.0	0.0	0.0	0.0	0.0	0.0	0.0	0.0	0.0	0.0	0.0	0.0	146.13793103448276	0.0	0.058532565	-0.095397705	1.005429555	2.5179	1.77016	-2.10588	3278649.0	1776544947.659106	0.0	1.0	-1.0	-1.0	-1.0	-1.0	-1.0	-1.0	-1.0	-1.0	0.0	marker	peace	Peace	23	0418
-68246.595	-54862.604999999996	-104516.055	-18479.07	0.0	0.0	0.0	0.0	0.0	0.0	0.0	0.0	0.0	0.0	0.0	0.0	0.0	0.0	146.13793103448276	0.0	0.058532565	-0.095397705	1.005429555	2.5179	1.77016	-2.10588	3278650.0	1776544947.660501	0.0	1.0	-1.0	-1.0	-1.0	-1.0	-1.0	-1.0	-1.0	-1.0	0.0	marker	peace	Peace	23	0418
-68231.655	-54868.229999999996	-104495.44499999999	-18469.8	0.0	0.0	0.0	0.0	0.0	0.0	0.0	0.0	0.0	0.0	0.0	0.0	0.0	0.0	146.13793103448276	0.0	0.058532565	-0.095397705	1.005429555	2.5179	1.77016	-2.10588	3278651.0	1776544947.660513	0.0	1.0	-1.0	-1.0	-1.0	-1.0	-1.0	-1.0	-1.0	-1.0	0.0	marker	peace	Peace	23	0418
-68165.955	-54873.765	-104448.87	-18433.44	0.0	0.0	0.0	0.0	0.0	0.0	0.0	0.0	0.0	0.0	0.0	0.0	0.0	0.0	146.13793103448276	0.0	0.058532565	-0.095397705	1.005429555	2.5179	1.77016	-2.10588	3278652.0	1776544947.665551	0.0	1.0	-1.0	-1.0	-1.0	-1.0	-1.0	-1.0	-1.0	-1.0	0.0	marker	peace	Peace	23	0418
-68152.455	-54875.159999999996	-104401.34999999999	-18397.53	0.0	0.0	0.0	0.0	0.0	0.0	0.0	0.0	0.0	0.0	0.0	0.0	0.0	0.0	146.13793103448276	0.0	0.058532565	-0.095397705	1.005429555	2.5179	1.77016	-2.10588	3278653.0	1776544947.665578	0.0	1.0	-1.0	-1.0	-1.0	-1.0	-1.0	-1.0	-1.0	-1.0	0.0	marker	peace	Peace	23	0418
-68166.54	-54871.965	-104423.48999999999	-18440.594999999998	0.0	0.0	0.0	0.0	0.0	0.0	0.0	0.0	0.0	0.0	0.0	0.0	0.0	0.0	146.13793103448276	0.0	0.058532565	-0.095397705	1.005429555	2.5179	1.77016	-2.10588	3278654.0	1776544947.668744	0.0	1.0	-1.0	-1.0	-1.0	-1.0	-1.0	-1.0	-1.0	-1.0	0.0	marker	peace	Peace	23	0418
-68146.965	-54866.744999999995	-104397.3	-18422.73	0.0	0.0	0.0	0.0	0.0	0.0	0.0	0.0	0.0	0.0	0.0	0.0	0.0	0.0	146.13793103448276	0.0	0.058532565	-0.095397705	1.005429555	2.5179	1.77016	-2.10588	3278655.0	1776544947.669064	0.0	1.0	-1.0	-1.0	-1.0	-1.0	-1.0	-1.0	-1.0	-1.0	0.0	marker	peace	Peace	23	0418
-68239.44	-54871.155	-104480.415	-18463.59	0.0	0.0	0.0	0.0	0.0	0.0	0.0	0.0	0.0	0.0	0.0	0.0	0.0	0.0	146.13793103448276	0.0	0.05798325	-0.092712165	1.011655125	3.4335	1.3734	-1.7396399999999999	3278656.0	1776544947.671571	0.0	1.0	-1.0	-1.0	-1.0	-1.0	-1.0	-1.0	-1.0	-1.0	0.0	marker	peace	Peace	23	0418
-68215.41	-54878.31	-104481.36	-18466.065	0.0	0.0	0.0	0.0	0.0	0.0	0.0	0.0	0.0	0.0	0.0	0.0	0.0	0.0	146.13793103448276	0.0	0.05798325	-0.092712165	1.011655125	3.4335	1.3734	-1.7396399999999999	3278657.0	1776544947.671592	0.0	1.0	-1.0	-1.0	-1.0	-1.0	-1.0	-1.0	-1.0	-1.0	0.0	marker	peace	Peace	23	0418
-68192.415	-54894.915	-104463.315	-18458.864999999998	0.0	0.0	0.0	0.0	0.0	0.0	0.0	0.0	0.0	0.0	0.0	0.0	0.0	0.0	146.13793103448276	0.0	0.05798325	-0.092712165	1.011655125	3.4335	1.3734	-1.7396399999999999	3278658.0	1776544947.675509	0.0	1.0	-1.0	-1.0	-1.0	-1.0	-1.0	-1.0	-1.0	-1.0	0.0	marker	peace	Peace	23	0418
-68164.515	-54902.475	-104424.84	-18420.84	0.0	0.0	0.0	0.0	0.0	0.0	0.0	0.0	0.0	0.0	0.0	0.0	0.0	0.0	146.13793103448276	0.0	0.05798325	-0.092712165	1.011655125	3.4335	1.3734	-1.7396399999999999	3278659.0	1776544947.675523	0.0	1.0	-1.0	-1.0	-1.0	-1.0	-1.0	-1.0	-1.0	-1.0	0.0	marker	peace	Peace	23	0418
-68204.43	-54906.57	-104449.40999999999	-18451.665	0.0	0.0	0.0	0.0	0.0	0.0	0.0	0.0	0.0	0.0	0.0	0.0	0.0	0.0	146.13793103448276	0.0	0.05798325	-0.092712165	1.011655125	3.4335	1.3734	-1.7396399999999999	3278660.0	1776544947.679644	0.0	1.0	-1.0	-1.0	-1.0	-1.0	-1.0	-1.0	-1.0	-1.0	0.0	marker	peace	Peace	23	0418
-68179.095	-54906.39	-104416.515	-18431.684999999998	0.0	0.0	0.0	0.0	0.0	0.0	0.0	0.0	0.0	0.0	0.0	0.0	0.0	0.0	146.13793103448276	0.0	0.05798325	-0.092712165	1.011655125	3.4335	1.3734	-1.7396399999999999	3278661.0	1776544947.679666	0.0	1.0	-1.0	-1.0	-1.0	-1.0	-1.0	-1.0	-1.0	-1.0	0.0	marker	peace	Peace	23	0418
-68201.28	-54903.06	-104475.105	-18450.18	0.0	0.0	0.0	0.0	0.0	0.0	0.0	0.0	0.0	0.0	0.0	0.0	0.0	0.0	146.13793103448276	0.0	0.05798325	-0.092712165	1.011655125	3.4335	1.3734	-1.7396399999999999	3278662.0	1776544947.683622	0.0	1.0	-1.0	-1.0	-1.0	-1.0	-1.0	-1.0	-1.0	-1.0	0.0	marker	peace	Peace	23	0418
-68216.535	-54894.96	-104515.875	-18468.0	0.0	0.0	0.0	0.0	0.0	0.0	0.0	0.0	0.0	0.0	0.0	0.0	0.0	0.0	146.13793103448276	0.0	0.05798325	-0.092712165	1.011655125	3.4335	1.3734	-1.7396399999999999	3278663.0	1776544947.683635	0.0	1.0	-1.0	-1.0	-1.0	-1.0	-1.0	-1.0	-1.0	-1.0	0.0	marker	peace	Peace	23	0418
-68207.22	-54880.784999999996	-104469.3	-18447.12	0.0	0.0	0.0	0.0	0.0	0.0	0.0	0.0	0.0	0.0	0.0	0.0	0.0	0.0	146.13793103448276	0.0	0.05798325	-0.092712165	1.011655125	3.4335	1.3734	-1.7396399999999999	3278664.0	1776544947.687696	0.0	1.0	-1.0	-1.0	-1.0	-1.0	-1.0	-1.0	-1.0	-1.0	0.0	marker	peace	Peace	23	0418
-68159.97	-54874.35	-104409.045	-18400.725	0.0	0.0	0.0	0.0	0.0	0.0	0.0	0.0	0.0	0.0	0.0	0.0	0.0	0.0	146.13793103448276	0.0	0.05798325	-0.092712165	1.011655125	3.4335	1.3734	-1.7396399999999999	3278665.0	1776544947.687709	0.0	1.0	-1.0	-1.0	-1.0	-1.0	-1.0	-1.0	-1.0	-1.0	0.0	marker	peace	Peace	23	0418
-68114.88	-54873.45	-104367.19499999999	-18370.215	0.0	0.0	0.0	0.0	0.0	0.0	0.0	0.0	0.0	0.0	0.0	0.0	0.0	0.0	146.13793103448276	0.0	0.056884620000000004	-0.090270765	1.01708724	4.28806	1.15976	-1.2207999999999999	3278666.0	1776544947.691566	0.0	1.0	-1.0	-1.0	-1.0	-1.0	-1.0	-1.0	-1.0	-1.0	0.0	marker	peace	Peace	23	0418
-68156.505	-54885.645	-104401.665	-18405.18	0.0	0.0	0.0	0.0	0.0	0.0	0.0	0.0	0.0	0.0	0.0	0.0	0.0	0.0	146.13793103448276	0.0	0.056884620000000004	-0.090270765	1.01708724	4.28806	1.15976	-1.2207999999999999	3278667.0	1776544947.691573	0.0	1.0	-1.0	-1.0	-1.0	-1.0	-1.0	-1.0	-1.0	-1.0	0.0	marker	peace	Peace	23	0418
-68198.94	-54900.405	-104449.545	-18442.125	0.0	0.0	0.0	0.0	0.0	0.0	0.0	0.0	0.0	0.0	0.0	0.0	0.0	0.0	146.13793103448276	0.0	0.056884620000000004	-0.090270765	1.01708724	4.28806	1.15976	-1.2207999999999999	3278668.0	1776544947.697446	0.0	1.0	-1.0	-1.0	-1.0	-1.0	-1.0	-1.0	-1.0	-1.0	0.0	marker	peace	Peace	23	0418
-68245.11	-54914.715	-104499.72	-18480.555	0.0	0.0	0.0	0.0	0.0	0.0	0.0	0.0	0.0	0.0	0.0	0.0	0.0	0.0	146.13793103448276	0.0	0.056884620000000004	-0.090270765	1.01708724	4.28806	1.15976	-1.2207999999999999	3278669.0	1776544947.697453	0.0	1.0	-1.0	-1.0	-1.0	-1.0	-1.0	-1.0	-1.0	-1.0	0.0	marker	peace	Peace	23	0418
-68250.555	-54927.045	-104517.26999999999	-18496.215	0.0	0.0	0.0	0.0	0.0	0.0	0.0	0.0	0.0	0.0	0.0	0.0	0.0	0.0	146.13793103448276	0.0	0.056884620000000004	-0.090270765	1.01708724	4.28806	1.15976	-1.2207999999999999	3278670.0	1776544947.699818	0.0	1.0	-1.0	-1.0	-1.0	-1.0	-1.0	-1.0	-1.0	-1.0	0.0	marker	peace	Peace	23	0418
-68221.08	-54930.195	-104480.14499999999	-18461.52	0.0	0.0	0.0	0.0	0.0	0.0	0.0	0.0	0.0	0.0	0.0	0.0	0.0	0.0	146.13793103448276	0.0	0.056884620000000004	-0.090270765	1.01708724	4.28806	1.15976	-1.2207999999999999	3278671.0	1776544947.699832	0.0	1.0	-1.0	-1.0	-1.0	-1.0	-1.0	-1.0	-1.0	-1.0	0.0	marker	peace	Peace	23	0418
-68202.315	-54932.805	-104465.11499999999	-18449.325	0.0	0.0	0.0	0.0	0.0	0.0	0.0	0.0	0.0	0.0	0.0	0.0	0.0	0.0	146.13793103448276	0.0	0.056884620000000004	-0.090270765	1.01708724	4.28806	1.15976	-1.2207999999999999	3278672.0	1776544947.703588	0.0	1.0	-1.0	-1.0	-1.0	-1.0	-1.0	-1.0	-1.0	-1.0	0.0	marker	peace	Peace	23	0418
-68195.52	-54926.505	-104455.935	-18440.64	0.0	0.0	0.0	0.0	0.0	0.0	0.0	0.0	0.0	0.0	0.0	0.0	0.0	0.0	146.13793103448276	0.0	0.056884620000000004	-0.090270765	1.01708724	4.28806	1.15976	-1.2207999999999999	3278673.0	1776544947.703593	0.0	1.0	-1.0	-1.0	-1.0	-1.0	-1.0	-1.0	-1.0	-1.0	0.0	marker	peace	Peace	23	0418
-68234.805	-54917.189999999995	-104499.315	-18488.204999999998	0.0	0.0	0.0	0.0	0.0	0.0	0.0	0.0	0.0	0.0	0.0	0.0	0.0	0.0	146.13793103448276	0.0	0.056884620000000004	-0.090270765	1.01708724	4.28806	1.15976	-1.2207999999999999	3278674.0	1776544947.710209	0.0	1.0	-1.0	-1.0	-1.0	-1.0	-1.0	-1.0	-1.0	-1.0	0.0	marker	peace	Peace	23	0418
-68229.09	-54919.485	-104484.23999999999	-18483.344999999998	0.0	0.0	0.0	0.0	0.0	0.0	0.0	0.0	0.0	0.0	0.0	0.0	0.0	0.0	146.13793103448276	0.0	0.056884620000000004	-0.090270765	1.01708724	4.28806	1.15976	-1.2207999999999999	3278675.0	1776544947.710215	0.0	1.0	-1.0	-1.0	-1.0	-1.0	-1.0	-1.0	-1.0	-1.0	0.0	marker	peace	Peace	23	0418
-68215.545	-54932.13	-104457.465	-18463.59	0.0	0.0	0.0	0.0	0.0	0.0	0.0	0.0	0.0	0.0	0.0	0.0	0.0	0.0	146.13793103448276	0.0	0.059142915000000004	-0.086852805	1.016659995	5.06632	1.0224199999999999	-1.3428799999999999	3278676.0	1776544947.711678	0.0	1.0	-1.0	-1.0	-1.0	-1.0	-1.0	-1.0	-1.0	-1.0	0.0	marker	peace	Peace	23	0418
-68217.255	-54941.085	-104442.61499999999	-18451.62	0.0	0.0	0.0	0.0	0.0	0.0	0.0	0.0	0.0	0.0	0.0	0.0	0.0	0.0	146.13793103448276	0.0	0.059142915000000004	-0.086852805	1.016659995	5.06632	1.0224199999999999	-1.3428799999999999	3278677.0	1776544947.711684	0.0	1.0	-1.0	-1.0	-1.0	-1.0	-1.0	-1.0	-1.0	-1.0	0.0	marker	peace	Peace	23	0418
-68218.605	-54946.799999999996	-104433.885	-18446.085	0.0	0.0	0.0	0.0	0.0	0.0	0.0	0.0	0.0	0.0	0.0	0.0	0.0	0.0	146.13793103448276	0.0	0.059142915000000004	-0.086852805	1.016659995	5.06632	1.0224199999999999	-1.3428799999999999	3278678.0	1776544947.715671	0.0	1.0	-1.0	-1.0	-1.0	-1.0	-1.0	-1.0	-1.0	-1.0	0.0	marker	peace	Peace	23	0418
-68168.745	-54931.229999999996	-104411.205	-18433.665	0.0	0.0	0.0	0.0	0.0	0.0	0.0	0.0	0.0	0.0	0.0	0.0	0.0	0.0	146.13793103448276	0.0	0.059142915000000004	-0.086852805	1.016659995	5.06632	1.0224199999999999	-1.3428799999999999	3278679.0	1776544947.715676	0.0	1.0	-1.0	-1.0	-1.0	-1.0	-1.0	-1.0	-1.0	-1.0	0.0	marker	peace	Peace	23	0418
-68142.285	-54913.185	-104401.62	-18405.945	0.0	0.0	0.0	0.0	0.0	0.0	0.0	0.0	0.0	0.0	0.0	0.0	0.0	0.0	146.13793103448276	0.0	0.059142915000000004	-0.086852805	1.016659995	5.06632	1.0224199999999999	-1.3428799999999999	3278680.0	1776544947.720235	0.0	1.0	-1.0	-1.0	-1.0	-1.0	-1.0	-1.0	-1.0	-1.0	0.0	marker	peace	Peace	23	0418
-68123.385	-54901.215	-104366.61	-18382.094999999998	0.0	0.0	0.0	0.0	0.0	0.0	0.0	0.0	0.0	0.0	0.0	0.0	0.0	0.0	146.13793103448276	0.0	0.059142915000000004	-0.086852805	1.016659995	5.06632	1.0224199999999999	-1.3428799999999999	3278681.0	1776544947.72024	0.0	1.0	-1.0	-1.0	-1.0	-1.0	-1.0	-1.0	-1.0	-1.0	0.0	marker	peace	Peace	23	0418
-68127.12	-54895.005	-104351.985	-18380.79	0.0	0.0	0.0	0.0	0.0	0.0	0.0	0.0	0.0	0.0	0.0	0.0	0.0	0.0	146.13793103448276	0.0	0.059142915000000004	-0.086852805	1.016659995	5.06632	1.0224199999999999	-1.3428799999999999	3278682.0	1776544947.723716	0.0	1.0	-1.0	-1.0	-1.0	-1.0	-1.0	-1.0	-1.0	-1.0	0.0	marker	peace	Peace	23	0418
-68249.295	-54892.71	-104454.135	-18480.51	0.0	0.0	0.0	0.0	0.0	0.0	0.0	0.0	0.0	0.0	0.0	0.0	0.0	0.0	146.13793103448276	0.0	0.059142915000000004	-0.086852805	1.016659995	5.06632	1.0224199999999999	-1.3428799999999999	3278683.0	1776544947.723721	0.0	1.0	-1.0	-1.0	-1.0	-1.0	-1.0	-1.0	-1.0	-1.0	0.0	marker	peace	Peace	23	0418
-68180.4	-54883.619999999995	-104417.50499999999	-18405.27	0.0	0.0	0.0	0.0	0.0	0.0	0.0	0.0	0.0	0.0	0.0	0.0	0.0	0.0	146.13793103448276	0.0	0.059142915000000004	-0.086852805	1.016659995	5.06632	1.0224199999999999	-1.3428799999999999	3278684.0	1776544947.72986	0.0	1.0	-1.0	-1.0	-1.0	-1.0	-1.0	-1.0	-1.0	-1.0	0.0	marker	peace	Peace	23	0418
-68166.98999999999	-54891.314999999995	-104454.72	-18419.355	0.0	0.0	0.0	0.0	0.0	0.0	0.0	0.0	0.0	0.0	0.0	0.0	0.0	0.0	146.13793103448276	0.0	0.059142915000000004	-0.086852805	1.016659995	5.06632	1.0224199999999999	-1.3428799999999999	3278685.0	1776544947.729867	0.0	1.0	-1.0	-1.0	-1.0	-1.0	-1.0	-1.0	-1.0	-1.0	0.0	marker	peace	Peace	23	0418
-68231.43	-54898.74	-104502.69	-18472.725	0.0	0.0	0.0	0.0	0.0	0.0	0.0	0.0	0.0	0.0	0.0	0.0	0.0	0.0	146.13793103448276	0.0	0.05700669	-0.07763652	1.01843001	3.052	0.0	-0.06104	3278686.0	1776544947.73168	0.0	1.0	-1.0	-1.0	-1.0	-1.0	-1.0	-1.0	-1.0	-1.0	0.0	marker	peace	Peace	23	0418
-68210.81999999999	-54898.47	-104481.94499999999	-18452.114999999998	0.0	0.0	0.0	0.0	0.0	0.0	0.0	0.0	0.0	0.0	0.0	0.0	0.0	0.0	146.13793103448276	0.0	0.05700669	-0.07763652	1.01843001	3.052	0.0	-0.06104	3278687.0	1776544947.731685	0.0	1.0	-1.0	-1.0	-1.0	-1.0	-1.0	-1.0	-1.0	-1.0	0.0	marker	peace	Peace	23	0418
-68245.425	-54901.799999999996	-104508.62999999999	-18503.415	0.0	0.0	0.0	0.0	0.0	0.0	0.0	0.0	0.0	0.0	0.0	0.0	0.0	0.0	146.13793103448276	0.0	0.05700669	-0.07763652	1.01843001	3.052	0.0	-0.06104	3278688.0	1776544947.735773	0.0	1.0	-1.0	-1.0	-1.0	-1.0	-1.0	-1.0	-1.0	-1.0	0.0	marker	peace	Peace	23	0418
-68223.465	-54895.32	-104477.12999999999	-18475.559999999998	0.0	0.0	0.0	0.0	0.0	0.0	0.0	0.0	0.0	0.0	0.0	0.0	0.0	0.0	146.13793103448276	0.0	0.05700669	-0.07763652	1.01843001	3.052	0.0	-0.06104	3278689.0	1776544947.735778	0.0	1.0	-1.0	-1.0	-1.0	-1.0	-1.0	-1.0	-1.0	-1.0	0.0	marker	peace	Peace	23	0418
-68203.755	-54890.189999999995	-104478.84	-18463.094999999998	0.0	0.0	0.0	0.0	0.0	0.0	0.0	0.0	0.0	0.0	0.0	0.0	0.0	0.0	146.13793103448276	0.0	0.05700669	-0.07763652	1.01843001	3.052	0.0	-0.06104	3278690.0	1776544947.739865	0.0	1.0	-1.0	-1.0	-1.0	-1.0	-1.0	-1.0	-1.0	-1.0	0.0	marker	peace	Peace	23	0418
-68162.715	-54885.555	-104438.06999999999	-18431.415	0.0	0.0	0.0	0.0	0.0	0.0	0.0	0.0	0.0	0.0	0.0	0.0	0.0	0.0	146.13793103448276	0.0	0.05700669	-0.07763652	1.01843001	3.052	0.0	-0.06104	3278691.0	1776544947.73987	0.0	1.0	-1.0	-1.0	-1.0	-1.0	-1.0	-1.0	-1.0	-1.0	0.0	marker	peace	Peace	23	0418
-68149.17	-54880.29	-104400.98999999999	-18413.055	0.0	0.0	0.0	0.0	0.0	0.0	0.0	0.0	0.0	0.0	0.0	0.0	0.0	0.0	146.13793103448276	0.0	0.05700669	-0.07763652	1.01843001	3.052	0.0	-0.06104	3278692.0	1776544947.746044	0.0	1.0	-1.0	-1.0	-1.0	-1.0	-1.0	-1.0	-1.0	-1.0	0.0	marker	peace	Peace	23	0418
-68198.94	-54881.1	-104418.495	-18455.94	0.0	0.0	0.0	0.0	0.0	0.0	0.0	0.0	0.0	0.0	0.0	0.0	0.0	0.0	146.13793103448276	0.0	0.05700669	-0.07763652	1.01843001	3.052	0.0	-0.06104	3278693.0	1776544947.746049	0.0	1.0	-1.0	-1.0	-1.0	-1.0	-1.0	-1.0	-1.0	-1.0	0.0	marker	peace	Peace	23	0418
-68211.495	-54888.119999999995	-104427.045	-18452.34	0.0	0.0	0.0	0.0	0.0	0.0	0.0	0.0	0.0	0.0	0.0	0.0	0.0	0.0	146.13793103448276	0.0	0.05700669	-0.07763652	1.01843001	3.052	0.0	-0.06104	3278694.0	1776544947.749016	0.0	1.0	-1.0	-1.0	-1.0	-1.0	-1.0	-1.0	-1.0	-1.0	0.0	marker	peace	Peace	23	0418
-68219.73	-54892.215	-104503.95	-18457.875	0.0	0.0	0.0	0.0	0.0	0.0	0.0	0.0	0.0	0.0	0.0	0.0	0.0	0.0	146.13793103448276	0.0	0.05700669	-0.07763652	1.01843001	3.052	0.0	-0.06104	3278695.0	1776544947.749029	0.0	1.0	-1.0	-1.0	-1.0	-1.0	-1.0	-1.0	-1.0	-1.0	0.0	marker	peace	Peace	23	0418
-68223.015	-54861.299999999996	-104511.825	-18467.415	0.0	0.0	0.0	0.0	0.0	0.0	0.0	0.0	0.0	0.0	0.0	0.0	0.0	0.0	146.13793103448276	0.0	0.05432115	-0.072814755	1.020322095	2.2127	-0.12208	0.16785999999999998	3278696.0	1776544947.752067	0.0	1.0	-1.0	-1.0	-1.0	-1.0	-1.0	-1.0	-1.0	-1.0	0.0	marker	peace	Peace	23	0418
-68206.545	-54839.79	-104469.61499999999	-18456.03	0.0	0.0	0.0	0.0	0.0	0.0	0.0	0.0	0.0	0.0	0.0	0.0	0.0	0.0	146.13793103448276	0.0	0.05432115	-0.072814755	1.020322095	2.2127	-0.12208	0.16785999999999998	3278697.0	1776544947.752072	0.0	1.0	-1.0	-1.0	-1.0	-1.0	-1.0	-1.0	-1.0	-1.0	0.0	marker	peace	Peace	23	0418
-68183.28	-54836.729999999996	-104445.54	-18434.07	0.0	0.0	0.0	0.0	0.0	0.0	0.0	0.0	0.0	0.0	0.0	0.0	0.0	0.0	146.13793103448276	0.0	0.05432115	-0.072814755	1.020322095	2.2127	-0.12208	0.16785999999999998	3278698.0	1776544947.755756	0.0	1.0	-1.0	-1.0	-1.0	-1.0	-1.0	-1.0	-1.0	-1.0	0.0	marker	peace	Peace	23	0418
