ch_0	ch_1	ch_2	ch_3	ch_4	ch_5	ch_6	ch_7	ch_8	ch_9	ch_10	ch_11	ch_12	ch_13	ch_14	ch_15	ch_16	ch_17	ch_18	ch_19	ch_20	ch_21	ch_22	ch_23	ch_24	ch_25	ch_26	timestamp	marker	ch_29	ch_30	ch_31	ch_32	ch_33	ch_34	ch_35	ch_36	ch_37	ch_38	MarkerColumn	GestureLabel	CueLabel	SampleNumber	CollectionDate
-68275.395	-54726.255	-104540.76	-18418.454999999998	0.0	0.0	0.0	0.0	0.0	0.0	0.0	0.0	0.0	0.0	0.0	0.0	0.0	0.0	146.13793103448276	0.0	0.05456529	-0.0708006	1.01891829	2.85362	-0.16785999999999998	-0.18312	3283483.0	1776544957.361295	5.0	1.0	-1.0	-1.0	-1.0	-1.0	-1.0	-1.0	-1.0	-1.0	0.0	marker	peace	Peace	24	0418
-68188.05	-54731.655	-104444.37	-18330.614999999998	0.0	0.0	0.0	0.0	0.0	0.0	0.0	0.0	0.0	0.0	0.0	0.0	0.0	0.0	146.13793103448276	0.0	0.05456529	-0.0708006	1.01891829	2.85362	-0.16785999999999998	-0.18312	3283484.0	1776544957.361311	0.0	1.0	-1.0	-1.0	-1.0	-1.0	-1.0	-1.0	-1.0	-1.0	0.0	marker	peace	Peace	24	0418
-68245.73999999999	-54741.915	-104509.98	-18401.67	0.0	0.0	0.0	0.0	0.0	0.0	0.0	0.0	0.0	0.0	0.0	0.0	0.0	0.0	146.13793103448276	0.0	0.05456529	-0.0708006	1.01891829	2.85362	-0.16785999999999998	-0.18312	3283485.0	1776544957.365437	0.0	1.0	-1.0	-1.0	-1.0	-1.0	-1.0	-1.0	-1.0	-1.0	0.0	marker	peace	Peace	24	0418
-68289.255	-54741.465	-104564.655	-18462.555	0.0	0.0	0.0	0.0	0.0	0.0	0.0	0.0	0.0	0.0	0.0	0.0	0.0	0.0	146.13793103448276	0.0	0.05456529	-0.0708006	1.01891829	2.85362	-0.16785999999999998	-0.18312	3283486.0	1776544957.365453	0.0	1.0	-1.0	-1.0	-1.0	-1.0	-1.0	-1.0	-1.0	-1.0	0.0	marker	peace	Peace	24	0418
-68232.87	-54728.009999999995	-104508.765	-18400.5	0.0	0.0	0.0	0.0	0.0	0.0	0.0	0.0	0.0	0.0	0.0	0.0	0.0	0.0	146.13793103448276	0.0	0.054687360000000004	-0.06860334	1.01952864	3.5860999999999996	-0.44254	-0.13734	3283487.0	1776544957.368529	0.0	1.0	-1.0	-1.0	-1.0	-1.0	-1.0	-1.0	-1.0	-1.0	0.0	marker	peace	Peace	24	0418
-68332.68	-54727.784999999996	-104566.76999999999	-18454.32	0.0	0.0	0.0	0.0	0.0	0.0	0.0	0.0	0.0	0.0	0.0	0.0	0.0	0.0	146.13793103448276	0.0	0.054687360000000004	-0.06860334	1.01952864	3.5860999999999996	-0.44254	-0.13734	3283488.0	1776544957.368543	0.0	1.0	-1.0	-1.0	-1.0	-1.0	-1.0	-1.0	-1.0	-1.0	0.0	marker	peace	Peace	24	0418
-68314.31999999999	-54735.075	-104580.36	-18457.02	0.0	0.0	0.0	0.0	0.0	0.0	0.0	0.0	0.0	0.0	0.0	0.0	0.0	0.0	146.13793103448276	0.0	0.054687360000000004	-0.06860334	1.01952864	3.5860999999999996	-0.44254	-0.13734	3283489.0	1776544957.371435	0.0	1.0	-1.0	-1.0	-1.0	-1.0	-1.0	-1.0	-1.0	-1.0	0.0	marker	peace	Peace	24	0418
-68296.86	-54749.79	-104565.015	-18440.774999999998	0.0	0.0	0.0	0.0	0.0	0.0	0.0	0.0	0.0	0.0	0.0	0.0	0.0	0.0	146.13793103448276	0.0	0.054687360000000004	-0.06860334	1.01952864	3.5860999999999996	-0.44254	-0.13734	3283490.0	1776544957.37145	0.0	1.0	-1.0	-1.0	-1.0	-1.0	-1.0	-1.0	-1.0	-1.0	0.0	marker	peace	Peace	24	0418
-68332.815	-54765.18	-104587.11	-18475.38	0.0	0.0	0.0	0.0	0.0	0.0	0.0	0.0	0.0	0.0	0.0	0.0	0.0	0.0	146.13793103448276	0.0	0.054687360000000004	-0.06860334	1.01952864	3.5860999999999996	-0.44254	-0.13734	3283491.0	1776544957.374654	0.0	1.0	-1.0	-1.0	-1.0	-1.0	-1.0	-1.0	-1.0	-1.0	0.0	marker	peace	Peace	24	0418
-68319.045	-54791.954999999994	-104581.17	-18481.14	0.0	0.0	0.0	0.0	0.0	0.0	0.0	0.0	0.0	0.0	0.0	0.0	0.0	0.0	146.13793103448276	0.0	0.054687360000000004	-0.06860334	1.01952864	3.5860999999999996	-0.44254	-0.13734	3283492.0	1776544957.374679	0.0	1.0	-1.0	-1.0	-1.0	-1.0	-1.0	-1.0	-1.0	-1.0	0.0	marker	peace	Peace	24	0418
-68250.465	-54830.384999999995	-104515.965	-18417.555	0.0	0.0	0.0	0.0	0.0	0.0	0.0	0.0	0.0	0.0	0.0	0.0	0.0	0.0	146.13793103448276	0.0	0.054687360000000004	-0.06860334	1.01952864	3.5860999999999996	-0.44254	-0.13734	3283493.0	1776544957.378627	0.0	1.0	-1.0	-1.0	-1.0	-1.0	-1.0	-1.0	-1.0	-1.0	0.0	marker	peace	Peace	24	0418
-68234.895	-54823.814999999995	-104523.165	-18420.885	0.0	0.0	0.0	0.0	0.0	0.0	0.0	0.0	0.0	0.0	0.0	0.0	0.0	0.0	146.13793103448276	0.0	0.054687360000000004	-0.06860334	1.01952864	3.5860999999999996	-0.44254	-0.13734	3283494.0	1776544957.378642	0.0	1.0	-1.0	-1.0	-1.0	-1.0	-1.0	-1.0	-1.0	-1.0	0.0	marker	peace	Peace	24	0418
-68341.68	-54814.59	-104607.0	-18506.969999999998	0.0	0.0	0.0	0.0	0.0	0.0	0.0	0.0	0.0	0.0	0.0	0.0	0.0	0.0	146.13793103448276	0.0	0.054687360000000004	-0.06860334	1.01952864	3.5860999999999996	-0.44254	-0.13734	3283495.0	1776544957.382796	0.0	1.0	-1.0	-1.0	-1.0	-1.0	-1.0	-1.0	-1.0	-1.0	0.0	marker	peace	Peace	24	0418
-68272.11	-54805.14	-104529.78	-18439.559999999998	0.0	0.0	0.0	0.0	0.0	0.0	0.0	0.0	0.0	0.0	0.0	0.0	0.0	0.0	146.13793103448276	0.0	0.054687360000000004	-0.06860334	1.01952864	3.5860999999999996	-0.44254	-0.13734	3283496.0	1776544957.382811	0.0	1.0	-1.0	-1.0	-1.0	-1.0	-1.0	-1.0	-1.0	-1.0	0.0	marker	peace	Peace	24	0418
-68255.415	-54804.195	-104511.51	-18422.46	0.0	0.0	0.0	0.0	0.0	0.0	0.0	0.0	0.0	0.0	0.0	0.0	0.0	0.0	146.13793103448276	0.0	0.05847153	-0.06848127	1.01379135	4.28806	0.06104	-0.41202	3283497.0	1776544957.386718	0.0	1.0	-1.0	-1.0	-1.0	-1.0	-1.0	-1.0	-1.0	-1.0	0.0	marker	peace	Peace	24	0418
-68313.645	-54807.479999999996	-104534.50499999999	-18444.555	0.0	0.0	0.0	0.0	0.0	0.0	0.0	0.0	0.0	0.0	0.0	0.0	0.0	0.0	146.13793103448276	0.0	0.05847153	-0.06848127	1.01379135	4.28806	0.06104	-0.41202	3283498.0	1776544957.386732	0.0	1.0	-1.0	-1.0	-1.0	-1.0	-1.0	-1.0	-1.0	-1.0	0.0	marker	peace	Peace	24	0418
-68301.495	-54810.945	-104519.43	-18435.87	0.0	0.0	0.0	0.0	0.0	0.0	0.0	0.0	0.0	0.0	0.0	0.0	0.0	0.0	146.13793103448276	0.0	0.05847153	-0.06848127	1.01379135	4.28806	0.06104	-0.41202	3283499.0	1776544957.390727	0.0	1.0	-1.0	-1.0	-1.0	-1.0	-1.0	-1.0	-1.0	-1.0	0.0	marker	peace	Peace	24	0418
-68309.86499999999	-54823.454999999994	-104567.67	-18481.905	0.0	0.0	0.0	0.0	0.0	0.0	0.0	0.0	0.0	0.0	0.0	0.0	0.0	0.0	146.13793103448276	0.0	0.05847153	-0.06848127	1.01379135	4.28806	0.06104	-0.41202	3283500.0	1776544957.390742	0.0	1.0	-1.0	-1.0	-1.0	-1.0	-1.0	-1.0	-1.0	-1.0	0.0	marker	peace	Peace	24	0418
-68331.78	-54824.579999999994	-104569.965	-18455.265	0.0	0.0	0.0	0.0	0.0	0.0	0.0	0.0	0.0	0.0	0.0	0.0	0.0	0.0	146.13793103448276	0.0	0.05847153	-0.06848127	1.01379135	4.28806	0.06104	-0.41202	3283501.0	1776544957.394772	0.0	1.0	-1.0	-1.0	-1.0	-1.0	-1.0	-1.0	-1.0	-1.0	0.0	marker	peace	Peace	24	0418
-68349.33	-54824.805	-104598.765	-18458.64	0.0	0.0	0.0	0.0	0.0	0.0	0.0	0.0	0.0	0.0	0.0	0.0	0.0	0.0	146.13793103448276	0.0	0.05847153	-0.06848127	1.01379135	4.28806	0.06104	-0.41202	3283502.0	1776544957.394787	0.0	1.0	-1.0	-1.0	-1.0	-1.0	-1.0	-1.0	-1.0	-1.0	0.0	marker	peace	Peace	24	0418
-68274.765	-54812.204999999994	-104567.265	-18432.045	0.0	0.0	0.0	0.0	0.0	0.0	0.0	0.0	0.0	0.0	0.0	0.0	0.0	0.0	146.13793103448276	0.0	0.05847153	-0.06848127	1.01379135	4.28806	0.06104	-0.41202	3283503.0	1776544957.398892	0.0	1.0	-1.0	-1.0	-1.0	-1.0	-1.0	-1.0	-1.0	-1.0	0.0	marker	peace	Peace	24	0418
-68203.89	-54790.92	-104535.405	-18381.915	0.0	0.0	0.0	0.0	0.0	0.0	0.0	0.0	0.0	0.0	0.0	0.0	0.0	0.0	146.13793103448276	0.0	0.05847153	-0.06848127	1.01379135	4.28806	0.06104	-0.41202	3283504.0	1776544957.398907	0.0	1.0	-1.0	-1.0	-1.0	-1.0	-1.0	-1.0	-1.0	-1.0	0.0	marker	peace	Peace	24	0418
-68303.06999999999	-54796.275	-104611.545	-18478.98	0.0	0.0	0.0	0.0	0.0	0.0	0.0	0.0	0.0	0.0	0.0	0.0	0.0	0.0	146.13793103448276	0.0	0.05847153	-0.06848127	1.01379135	4.28806	0.06104	-0.41202	3283505.0	1776544957.402848	0.0	1.0	-1.0	-1.0	-1.0	-1.0	-1.0	-1.0	-1.0	-1.0	0.0	marker	peace	Peace	24	0418
-68383.125	-54804.689999999995	-104647.635	-18536.175	0.0	0.0	0.0	0.0	0.0	0.0	0.0	0.0	0.0	0.0	0.0	0.0	0.0	0.0	146.13793103448276	0.0	0.05847153	-0.06848127	1.01379135	4.28806	0.06104	-0.41202	3283506.0	1776544957.402862	0.0	1.0	-1.0	-1.0	-1.0	-1.0	-1.0	-1.0	-1.0	-1.0	0.0	marker	peace	Peace	24	0418
-68341.95	-54805.365	-104584.68	-18492.614999999998	0.0	0.0	0.0	0.0	0.0	0.0	0.0	0.0	0.0	0.0	0.0	0.0	0.0	0.0	145.79310344827584	0.0	0.05895981	-0.06933576	1.012875825	2.10588	-0.01526	0.15259999999999999	3283507.0	1776544957.409134	0.0	1.0	-1.0	-1.0	-1.0	-1.0	-1.0	-1.0	-1.0	-1.0	0.0	marker	peace	Peace	24	0418
-68317.515	-54808.02	-104573.295	-18467.28	0.0	0.0	0.0	0.0	0.0	0.0	0.0	0.0	0.0	0.0	0.0	0.0	0.0	0.0	145.79310344827584	0.0	0.05895981	-0.06933576	1.012875825	2.10588	-0.01526	0.15259999999999999	3283508.0	1776544957.409149	0.0	1.0	-1.0	-1.0	-1.0	-1.0	-1.0	-1.0	-1.0	-1.0	0.0	marker	peace	Peace	24	0418
-68338.665	-54805.95	-104577.48	-18478.26	0.0	0.0	0.0	0.0	0.0	0.0	0.0	0.0	0.0	0.0	0.0	0.0	0.0	0.0	145.79310344827584	0.0	0.05895981	-0.06933576	1.012875825	2.10588	-0.01526	0.15259999999999999	3283509.0	1776544957.410896	0.0	1.0	-1.0	-1.0	-1.0	-1.0	-1.0	-1.0	-1.0	-1.0	0.0	marker	peace	Peace	24	0418
-68326.92	-54797.759999999995	-104533.92	-18484.38	0.0	0.0	0.0	0.0	0.0	0.0	0.0	0.0	0.0	0.0	0.0	0.0	0.0	0.0	145.79310344827584	0.0	0.05895981	-0.06933576	1.012875825	2.10588	-0.01526	0.15259999999999999	3283510.0	1776544957.410915	0.0	1.0	-1.0	-1.0	-1.0	-1.0	-1.0	-1.0	-1.0	-1.0	0.0	marker	peace	Peace	24	0418
-68272.56	-54787.814999999995	-104503.86	-18446.895	0.0	0.0	0.0	0.0	0.0	0.0	0.0	0.0	0.0	0.0	0.0	0.0	0.0	0.0	145.79310344827584	0.0	0.05895981	-0.06933576	1.012875825	2.10588	-0.01526	0.15259999999999999	3283511.0	1776544957.41482	0.0	1.0	-1.0	-1.0	-1.0	-1.0	-1.0	-1.0	-1.0	-1.0	0.0	marker	peace	Peace	24	0418
-68239.845	-54775.665	-104495.67	-18405.09	0.0	0.0	0.0	0.0	0.0	0.0	0.0	0.0	0.0	0.0	0.0	0.0	0.0	0.0	145.79310344827584	0.0	0.05895981	-0.06933576	1.012875825	2.10588	-0.01526	0.15259999999999999	3283512.0	1776544957.414836	0.0	1.0	-1.0	-1.0	-1.0	-1.0	-1.0	-1.0	-1.0	-1.0	0.0	marker	peace	Peace	24	0418
-68265.98999999999	-54776.384999999995	-104571.855	-18439.29	0.0	0.0	0.0	0.0	0.0	0.0	0.0	0.0	0.0	0.0	0.0	0.0	0.0	0.0	145.79310344827584	0.0	0.05895981	-0.06933576	1.012875825	2.10588	-0.01526	0.15259999999999999	3283513.0	1776544957.418832	0.0	1.0	-1.0	-1.0	-1.0	-1.0	-1.0	-1.0	-1.0	-1.0	0.0	marker	peace	Peace	24	0418
-68185.125	-54766.619999999995	-104515.69499999999	-18378.945	0.0	0.0	0.0	0.0	0.0	0.0	0.0	0.0	0.0	0.0	0.0	0.0	0.0	0.0	145.79310344827584	0.0	0.05895981	-0.06933576	1.012875825	2.10588	-0.01526	0.15259999999999999	3283514.0	1776544957.418847	0.0	1.0	-1.0	-1.0	-1.0	-1.0	-1.0	-1.0	-1.0	-1.0	0.0	marker	peace	Peace	24	0418
-68328.27	-54777.06	-104592.015	-18444.69	0.0	0.0	0.0	0.0	0.0	0.0	0.0	0.0	0.0	0.0	0.0	0.0	0.0	0.0	145.79310344827584	0.0	0.05895981	-0.06933576	1.012875825	2.10588	-0.01526	0.15259999999999999	3283515.0	1776544957.422842	0.0	1.0	-1.0	-1.0	-1.0	-1.0	-1.0	-1.0	-1.0	-1.0	0.0	marker	peace	Peace	24	0418
-68392.935	-54785.52	-104642.415	-18536.76	0.0	0.0	0.0	0.0	0.0	0.0	0.0	0.0	0.0	0.0	0.0	0.0	0.0	0.0	145.79310344827584	0.0	0.05895981	-0.06933576	1.012875825	2.10588	-0.01526	0.15259999999999999	3283516.0	1776544957.422857	0.0	1.0	-1.0	-1.0	-1.0	-1.0	-1.0	-1.0	-1.0	-1.0	0.0	marker	peace	Peace	24	0418
-68330.34	-54785.564999999995	-104582.205	-18488.34	0.0	0.0	0.0	0.0	0.0	0.0	0.0	0.0	0.0	0.0	0.0	0.0	0.0	0.0	145.79310344827584	0.0	0.05346666	-0.07067853	1.01427963	2.10588	0.27468	-0.35097999999999996	3283517.0	1776544957.427327	0.0	1.0	-1.0	-1.0	-1.0	-1.0	-1.0	-1.0	-1.0	-1.0	0.0	marker	peace	Peace	24	0418
-68362.92	-54785.564999999995	-104589.62999999999	-18486.765	0.0	0.0	0.0	0.0	0.0	0.0	0.0	0.0	0.0	0.0	0.0	0.0	0.0	0.0	145.79310344827584	0.0	0.05346666	-0.07067853	1.01427963	2.10588	0.27468	-0.35097999999999996	3283518.0	1776544957.427342	0.0	1.0	-1.0	-1.0	-1.0	-1.0	-1.0	-1.0	-1.0	-1.0	0.0	marker	peace	Peace	24	0418
-68339.52	-54788.13	-104614.965	-18480.51	0.0	0.0	0.0	0.0	0.0	0.0	0.0	0.0	0.0	0.0	0.0	0.0	0.0	0.0	145.79310344827584	0.0	0.05346666	-0.07067853	1.01427963	2.10588	0.27468	-0.35097999999999996	3283519.0	1776544957.431387	0.0	1.0	-1.0	-1.0	-1.0	-1.0	-1.0	-1.0	-1.0	-1.0	0.0	marker	peace	Peace	24	0418
-68286.69	-54788.67	-104574.59999999999	-18467.73	0.0	0.0	0.0	0.0	0.0	0.0	0.0	0.0	0.0	0.0	0.0	0.0	0.0	0.0	145.79310344827584	0.0	0.05346666	-0.07067853	1.01427963	2.10588	0.27468	-0.35097999999999996	3283520.0	1776544957.431402	0.0	1.0	-1.0	-1.0	-1.0	-1.0	-1.0	-1.0	-1.0	-1.0	0.0	marker	peace	Peace	24	0418
-68301.405	-54783.81	-104558.22	-18464.895	0.0	0.0	0.0	0.0	0.0	0.0	0.0	0.0	0.0	0.0	0.0	0.0	0.0	0.0	145.79310344827584	0.0	0.05346666	-0.07067853	1.01427963	2.10588	0.27468	-0.35097999999999996	3283521.0	1776544957.434863	0.0	1.0	-1.0	-1.0	-1.0	-1.0	-1.0	-1.0	-1.0	-1.0	0.0	marker	peace	Peace	24	0418
-68333.44499999999	-54779.939999999995	-104604.84	-18488.61	0.0	0.0	0.0	0.0	0.0	0.0	0.0	0.0	0.0	0.0	0.0	0.0	0.0	0.0	145.79310344827584	0.0	0.05346666	-0.07067853	1.01427963	2.10588	0.27468	-0.35097999999999996	3283522.0	1776544957.434878	0.0	1.0	-1.0	-1.0	-1.0	-1.0	-1.0	-1.0	-1.0	-1.0	0.0	marker	peace	Peace	24	0418
-68315.985	-54780.165	-104565.825	-18467.415	0.0	0.0	0.0	0.0	0.0	0.0	0.0	0.0	0.0	0.0	0.0	0.0	0.0	0.0	145.79310344827584	0.0	0.05346666	-0.07067853	1.01427963	2.10588	0.27468	-0.35097999999999996	3283523.0	1776544957.440374	0.0	1.0	-1.0	-1.0	-1.0	-1.0	-1.0	-1.0	-1.0	-1.0	0.0	marker	peace	Peace	24	0418
-68233.72499999999	-54780.93	-104457.78	-18364.545	0.0	0.0	0.0	0.0	0.0	0.0	0.0	0.0	0.0	0.0	0.0	0.0	0.0	0.0	145.79310344827584	0.0	0.05346666	-0.07067853	1.01427963	2.10588	0.27468	-0.35097999999999996	3283524.0	1776544957.440388	0.0	1.0	-1.0	-1.0	-1.0	-1.0	-1.0	-1.0	-1.0	-1.0	0.0	marker	peace	Peace	24	0418
-68189.94	-54785.43	-104482.89	-18360.63	0.0	0.0	0.0	0.0	0.0	0.0	0.0	0.0	0.0	0.0	0.0	0.0	0.0	0.0	145.79310344827584	0.0	0.05346666	-0.07067853	1.01427963	2.10588	0.27468	-0.35097999999999996	3283525.0	1776544957.442869	0.0	1.0	-1.0	-1.0	-1.0	-1.0	-1.0	-1.0	-1.0	-1.0	0.0	marker	peace	Peace	24	0418
-68356.215	-54795.24	-104630.04	-18497.655	0.0	0.0	0.0	0.0	0.0	0.0	0.0	0.0	0.0	0.0	0.0	0.0	0.0	0.0	145.79310344827584	0.0	0.05346666	-0.07067853	1.01427963	2.10588	0.27468	-0.35097999999999996	3283526.0	1776544957.442884	0.0	1.0	-1.0	-1.0	-1.0	-1.0	-1.0	-1.0	-1.0	-1.0	0.0	marker	peace	Peace	24	0418
-68356.125	-54782.369999999995	-104591.51999999999	-18482.94	0.0	0.0	0.0	0.0	0.0	0.0	0.0	0.0	0.0	0.0	0.0	0.0	0.0	0.0	145.79310344827584	0.0	0.058288425	-0.07275372000000001	1.0120823700000001	3.00622	0.5341	-0.71722	3283527.0	1776544957.446983	0.0	1.0	-1.0	-1.0	-1.0	-1.0	-1.0	-1.0	-1.0	-1.0	0.0	marker	peace	Peace	24	0418
-68304.465	-54764.595	-104539.68	-18460.17	0.0	0.0	0.0	0.0	0.0	0.0	0.0	0.0	0.0	0.0	0.0	0.0	0.0	0.0	145.79310344827584	0.0	0.058288425	-0.07275372000000001	1.0120823700000001	3.00622	0.5341	-0.71722	3283528.0	1776544957.446998	0.0	1.0	-1.0	-1.0	-1.0	-1.0	-1.0	-1.0	-1.0	-1.0	0.0	marker	peace	Peace	24	0418
-68306.805	-54753.615	-104566.14	-18480.195	0.0	0.0	0.0	0.0	0.0	0.0	0.0	0.0	0.0	0.0	0.0	0.0	0.0	0.0	145.79310344827584	0.0	0.058288425	-0.07275372000000001	1.0120823700000001	3.00622	0.5341	-0.71722	3283529.0	1776544957.450931	0.0	1.0	-1.0	-1.0	-1.0	-1.0	-1.0	-1.0	-1.0	-1.0	0.0	marker	peace	Peace	24	0418
-68317.92	-54750.645	-104609.11499999999	-18491.67	0.0	0.0	0.0	0.0	0.0	0.0	0.0	0.0	0.0	0.0	0.0	0.0	0.0	0.0	145.79310344827584	0.0	0.058288425	-0.07275372000000001	1.0120823700000001	3.00622	0.5341	-0.71722	3283530.0	1776544957.450945	0.0	1.0	-1.0	-1.0	-1.0	-1.0	-1.0	-1.0	-1.0	-1.0	0.0	marker	peace	Peace	24	0418
-68251.455	-54749.97	-104548.14	-18413.1	0.0	0.0	0.0	0.0	0.0	0.0	0.0	0.0	0.0	0.0	0.0	0.0	0.0	0.0	145.79310344827584	0.0	0.058288425	-0.07275372000000001	1.0120823700000001	3.00622	0.5341	-0.71722	3283531.0	1776544957.45504	0.0	1.0	-1.0	-1.0	-1.0	-1.0	-1.0	-1.0	-1.0	-1.0	0.0	marker	peace	Peace	24	0418
-68273.595	-54753.165	-104556.105	-18445.95	0.0	0.0	0.0	0.0	0.0	0.0	0.0	0.0	0.0	0.0	0.0	0.0	0.0	0.0	145.79310344827584	0.0	0.058288425	-0.07275372000000001	1.0120823700000001	3.00622	0.5341	-0.71722	3283532.0	1776544957.455055	0.0	1.0	-1.0	-1.0	-1.0	-1.0	-1.0	-1.0	-1.0	-1.0	0.0	marker	peace	Peace	24	0418
-68373.675	-54761.22	-104585.265	-18473.489999999998	0.0	0.0	0.0	0.0	0.0	0.0	0.0	0.0	0.0	0.0	0.0	0.0	0.0	0.0	145.79310344827584	0.0	0.058288425	-0.07275372000000001	1.0120823700000001	3.00622	0.5341	-0.71722	3283533.0	1776544957.459029	0.0	1.0	-1.0	-1.0	-1.0	-1.0	-1.0	-1.0	-1.0	-1.0	0.0	marker	peace	Peace	24	0418
-68347.845	-54773.055	-104584.545	-18485.594999999998	0.0	0.0	0.0	0.0	0.0	0.0	0.0	0.0	0.0	0.0	0.0	0.0	0.0	0.0	145.79310344827584	0.0	0.058288425	-0.07275372000000001	1.0120823700000001	3.00622	0.5341	-0.71722	3283534.0	1776544957.459045	0.0	1.0	-1.0	-1.0	-1.0	-1.0	-1.0	-1.0	-1.0	-1.0	0.0	marker	peace	Peace	24	0418
-68276.565	-54779.715	-104549.12999999999	-18440.774999999998	0.0	0.0	0.0	0.0	0.0	0.0	0.0	0.0	0.0	0.0	0.0	0.0	0.0	0.0	145.79310344827584	0.0	0.058288425	-0.07275372000000001	1.0120823700000001	3.00622	0.5341	-0.71722	3283535.0	1776544957.462944	0.0	1.0	-1.0	-1.0	-1.0	-1.0	-1.0	-1.0	-1.0	-1.0	0.0	marker	peace	Peace	24	0418
-68265.54	-54780.39	-104536.305	-18428.175	0.0	0.0	0.0	0.0	0.0	0.0	0.0	0.0	0.0	0.0	0.0	0.0	0.0	0.0	145.79310344827584	0.0	0.058288425	-0.07275372000000001	1.0120823700000001	3.00622	0.5341	-0.71722	3283536.0	1776544957.462959	0.0	1.0	-1.0	-1.0	-1.0	-1.0	-1.0	-1.0	-1.0	-1.0	0.0	marker	peace	Peace	24	0418
-68336.955	-54784.485	-104593.05	-18489.78	0.0	0.0	0.0	0.0	0.0	0.0	0.0	0.0	0.0	0.0	0.0	0.0	0.0	0.0	145.79310344827584	0.0	0.056091165	-0.07263165	1.01403549	3.03674	0.3815	-0.65618	3283537.0	1776544957.467859	0.0	1.0	-1.0	-1.0	-1.0	-1.0	-1.0	-1.0	-1.0	-1.0	0.0	marker	peace	Peace	24	0418
-68325.525	-54786.329999999994	-104569.01999999999	-18479.88	0.0	0.0	0.0	0.0	0.0	0.0	0.0	0.0	0.0	0.0	0.0	0.0	0.0	0.0	145.79310344827584	0.0	0.056091165	-0.07263165	1.01403549	3.03674	0.3815	-0.65618	3283538.0	1776544957.467865	0.0	1.0	-1.0	-1.0	-1.0	-1.0	-1.0	-1.0	-1.0	-1.0	0.0	marker	peace	Peace	24	0418
-68312.11499999999	-54792.9	-104583.825	-18489.555	0.0	0.0	0.0	0.0	0.0	0.0	0.0	0.0	0.0	0.0	0.0	0.0	0.0	0.0	145.79310344827584	0.0	0.056091165	-0.07263165	1.01403549	3.03674	0.3815	-0.65618	3283539.0	1776544957.473884	0.0	1.0	-1.0	-1.0	-1.0	-1.0	-1.0	-1.0	-1.0	-1.0	0.0	marker	peace	Peace	24	0418
-68278.455	-54789.84	-104523.20999999999	-18444.915	0.0	0.0	0.0	0.0	0.0	0.0	0.0	0.0	0.0	0.0	0.0	0.0	0.0	0.0	145.79310344827584	0.0	0.056091165	-0.07263165	1.01403549	3.03674	0.3815	-0.65618	3283540.0	1776544957.473898	0.0	1.0	-1.0	-1.0	-1.0	-1.0	-1.0	-1.0	-1.0	-1.0	0.0	marker	peace	Peace	24	0418
-68202.9	-54788.04	-104465.295	-18373.545	0.0	0.0	0.0	0.0	0.0	0.0	0.0	0.0	0.0	0.0	0.0	0.0	0.0	0.0	145.79310344827584	0.0	0.056091165	-0.07263165	1.01403549	3.03674	0.3815	-0.65618	3283541.0	1776544957.476934	0.0	1.0	-1.0	-1.0	-1.0	-1.0	-1.0	-1.0	-1.0	-1.0	0.0	marker	peace	Peace	24	0418
-68115.465	-54786.465	-104413.76999999999	-18275.489999999998	0.0	0.0	0.0	0.0	0.0	0.0	0.0	0.0	0.0	0.0	0.0	0.0	0.0	0.0	145.79310344827584	0.0	0.056091165	-0.07263165	1.01403549	3.03674	0.3815	-0.65618	3283542.0	1776544957.476949	0.0	1.0	-1.0	-1.0	-1.0	-1.0	-1.0	-1.0	-1.0	-1.0	0.0	marker	peace	Peace	24	0418
-68226.12	-54792.585	-104543.415	-18398.969999999998	0.0	0.0	0.0	0.0	0.0	0.0	0.0	0.0	0.0	0.0	0.0	0.0	0.0	0.0	145.79310344827584	0.0	0.056091165	-0.07263165	1.01403549	3.03674	0.3815	-0.65618	3283543.0	1776544957.479879	0.0	1.0	-1.0	-1.0	-1.0	-1.0	-1.0	-1.0	-1.0	-1.0	0.0	marker	peace	Peace	24	0418
-68417.73	-54797.715	-104700.78	-18560.88	0.0	0.0	0.0	0.0	0.0	0.0	0.0	0.0	0.0	0.0	0.0	0.0	0.0	0.0	145.79310344827584	0.0	0.056091165	-0.07263165	1.01403549	3.03674	0.3815	-0.65618	3283544.0	1776544957.479894	0.0	1.0	-1.0	-1.0	-1.0	-1.0	-1.0	-1.0	-1.0	-1.0	0.0	marker	peace	Peace	24	0418
-68409.18	-54798.795	-104672.385	-18541.665	0.0	0.0	0.0	0.0	0.0	0.0	0.0	0.0	0.0	0.0	0.0	0.0	0.0	0.0	145.79310344827584	0.0	0.056091165	-0.07263165	1.01403549	3.03674	0.3815	-0.65618	3283545.0	1776544957.483123	0.0	1.0	-1.0	-1.0	-1.0	-1.0	-1.0	-1.0	-1.0	-1.0	0.0	marker	peace	Peace	24	0418
-68345.505	-54799.875	-104612.355	-18491.579999999998	0.0	0.0	0.0	0.0	0.0	0.0	0.0	0.0	0.0	0.0	0.0	0.0	0.0	0.0	145.79310344827584	0.0	0.056091165	-0.07263165	1.01403549	3.03674	0.3815	-0.65618	3283546.0	1776544957.483138	0.0	1.0	-1.0	-1.0	-1.0	-1.0	-1.0	-1.0	-1.0	-1.0	0.0	marker	peace	Peace	24	0418
-68289.885	-54796.454999999994	-104565.87	-18444.149999999998	0.0	0.0	0.0	0.0	0.0	0.0	0.0	0.0	0.0	0.0	0.0	0.0	0.0	0.0	145.79310344827584	0.0	0.05639634	-0.07067853	1.0144017	3.93708	0.97664	-0.6409199999999999	3283547.0	1776544957.487081	0.0	1.0	-1.0	-1.0	-1.0	-1.0	-1.0	-1.0	-1.0	-1.0	0.0	marker	peace	Peace	24	0418
-68295.42	-54793.53	-104580.045	-18462.645	0.0	0.0	0.0	0.0	0.0	0.0	0.0	0.0	0.0	0.0	0.0	0.0	0.0	0.0	145.79310344827584	0.0	0.05639634	-0.07067853	1.0144017	3.93708	0.97664	-0.6409199999999999	3283548.0	1776544957.487087	0.0	1.0	-1.0	-1.0	-1.0	-1.0	-1.0	-1.0	-1.0	-1.0	0.0	marker	peace	Peace	24	0418
-68269.95	-54799.38	-104558.08499999999	-18453.195	0.0	0.0	0.0	0.0	0.0	0.0	0.0	0.0	0.0	0.0	0.0	0.0	0.0	0.0	145.79310344827584	0.0	0.05639634	-0.07067853	1.0144017	3.93708	0.97664	-0.6409199999999999	3283549.0	1776544957.491026	0.0	1.0	-1.0	-1.0	-1.0	-1.0	-1.0	-1.0	-1.0	-1.0	0.0	marker	peace	Peace	24	0418
-68301.54	-54798.704999999994	-104546.025	-18432.315	0.0	0.0	0.0	0.0	0.0	0.0	0.0	0.0	0.0	0.0	0.0	0.0	0.0	0.0	145.79310344827584	0.0	0.05639634	-0.07067853	1.0144017	3.93708	0.97664	-0.6409199999999999	3283550.0	1776544957.491041	0.0	1.0	-1.0	-1.0	-1.0	-1.0	-1.0	-1.0	-1.0	-1.0	0.0	marker	peace	Peace	24	0418
-68331.015	-54788.354999999996	-104559.03	-18441.135	0.0	0.0	0.0	0.0	0.0	0.0	0.0	0.0	0.0	0.0	0.0	0.0	0.0	0.0	145.79310344827584	0.0	0.05639634	-0.07067853	1.0144017	3.93708	0.97664	-0.6409199999999999	3283551.0	1776544957.498974	0.0	1.0	-1.0	-1.0	-1.0	-1.0	-1.0	-1.0	-1.0	-1.0	0.0	marker	peace	Peace	24	0418
-68307.39	-54774.9	-104573.565	-18464.355	0.0	0.0	0.0	0.0	0.0	0.0	0.0	0.0	0.0	0.0	0.0	0.0	0.0	0.0	145.79310344827584	0.0	0.05639634	-0.07067853	1.0144017	3.93708	0.97664	-0.6409199999999999	3283552.0	1776544957.498989	0.0	1.0	-1.0	-1.0	-1.0	-1.0	-1.0	-1.0	-1.0	-1.0	0.0	marker	peace	Peace	24	0418
-68238.495	-54767.744999999995	-104516.45999999999	-18408.915	0.0	0.0	0.0	0.0	0.0	0.0	0.0	0.0	0.0	0.0	0.0	0.0	0.0	0.0	145.79310344827584	0.0	0.05639634	-0.07067853	1.0144017	3.93708	0.97664	-0.6409199999999999	3283553.0	1776544957.499003	0.0	1.0	-1.0	-1.0	-1.0	-1.0	-1.0	-1.0	-1.0	-1.0	0.0	marker	peace	Peace	24	0418
-68229.45	-54773.145	-104513.58	-18400.68	0.0	0.0	0.0	0.0	0.0	0.0	0.0	0.0	0.0	0.0	0.0	0.0	0.0	0.0	145.79310344827584	0.0	0.05639634	-0.07067853	1.0144017	3.93708	0.97664	-0.6409199999999999	3283554.0	1776544957.49901	0.0	1.0	-1.0	-1.0	-1.0	-1.0	-1.0	-1.0	-1.0	-1.0	0.0	marker	peace	Peace	24	0418
-68304.69	-54780.795	-104587.69499999999	-18469.215	0.0	0.0	0.0	0.0	0.0	0.0	0.0	0.0	0.0	0.0	0.0	0.0	0.0	0.0	145.79310344827584	0.0	0.05639634	-0.07067853	1.0144017	3.93708	0.97664	-0.6409199999999999	3283555.0	1776544957.503183	0.0	1.0	-1.0	-1.0	-1.0	-1.0	-1.0	-1.0	-1.0	-1.0	0.0	marker	peace	Peace	24	0418
-68363.955	-54788.13	-104624.775	-18507.015	0.0	0.0	0.0	0.0	0.0	0.0	0.0	0.0	0.0	0.0	0.0	0.0	0.0	0.0	145.79310344827584	0.0	0.05639634	-0.07067853	1.0144017	3.93708	0.97664	-0.6409199999999999	3283556.0	1776544957.503197	0.0	1.0	-1.0	-1.0	-1.0	-1.0	-1.0	-1.0	-1.0	-1.0	0.0	marker	peace	Peace	24	0418
-68386.86	-54786.689999999995	-104617.575	-18495.809999999998	0.0	0.0	0.0	0.0	0.0	0.0	0.0	0.0	0.0	0.0	0.0	0.0	0.0	0.0	145.79310344827584	0.0	0.06018051	-0.07153302	1.00976304	3.41824	0.88508	-0.74774	3283557.0	1776544957.508626	0.0	1.0	-1.0	-1.0	-1.0	-1.0	-1.0	-1.0	-1.0	-1.0	0.0	marker	peace	Peace	24	0418
-68363.09999999999	-54794.924999999996	-104613.61499999999	-18505.44	0.0	0.0	0.0	0.0	0.0	0.0	0.0	0.0	0.0	0.0	0.0	0.0	0.0	0.0	145.79310344827584	0.0	0.06018051	-0.07153302	1.00976304	3.41824	0.88508	-0.74774	3283558.0	1776544957.508641	0.0	1.0	-1.0	-1.0	-1.0	-1.0	-1.0	-1.0	-1.0	-1.0	0.0	marker	peace	Peace	24	0418
-68349.015	-54801.945	-104608.39499999999	-18503.325	0.0	0.0	0.0	0.0	0.0	0.0	0.0	0.0	0.0	0.0	0.0	0.0	0.0	0.0	145.79310344827584	0.0	0.06018051	-0.07153302	1.00976304	3.41824	0.88508	-0.74774	3283559.0	1776544957.511083	0.0	1.0	-1.0	-1.0	-1.0	-1.0	-1.0	-1.0	-1.0	-1.0	0.0	marker	peace	Peace	24	0418
-68325.48	-54795.465	-104583.59999999999	-18477.585	0.0	0.0	0.0	0.0	0.0	0.0	0.0	0.0	0.0	0.0	0.0	0.0	0.0	0.0	145.79310344827584	0.0	0.06018051	-0.07153302	1.00976304	3.41824	0.88508	-0.74774	3283560.0	1776544957.511097	0.0	1.0	-1.0	-1.0	-1.0	-1.0	-1.0	-1.0	-1.0	-1.0	0.0	marker	peace	Peace	24	0418
-68290.38	-54793.53	-104559.03	-18464.85	0.0	0.0	0.0	0.0	0.0	0.0	0.0	0.0	0.0	0.0	0.0	0.0	0.0	0.0	145.79310344827584	0.0	0.06018051	-0.07153302	1.00976304	3.41824	0.88508	-0.74774	3283561.0	1776544957.515105	0.0	1.0	-1.0	-1.0	-1.0	-1.0	-1.0	-1.0	-1.0	-1.0	0.0	marker	peace	Peace	24	0418
-68267.43	-54789.435	-104543.90999999999	-18447.795	0.0	0.0	0.0	0.0	0.0	0.0	0.0	0.0	0.0	0.0	0.0	0.0	0.0	0.0	145.79310344827584	0.0	0.06018051	-0.07153302	1.00976304	3.41824	0.88508	-0.74774	3283562.0	1776544957.51512	0.0	1.0	-1.0	-1.0	-1.0	-1.0	-1.0	-1.0	-1.0	-1.0	0.0	marker	peace	Peace	24	0418
-68170.36499999999	-54778.365	-104469.25499999999	-18362.61	0.0	0.0	0.0	0.0	0.0	0.0	0.0	0.0	0.0	0.0	0.0	0.0	0.0	0.0	145.79310344827584	0.0	0.06018051	-0.07153302	1.00976304	3.41824	0.88508	-0.74774	3283563.0	1776544957.520764	0.0	1.0	-1.0	-1.0	-1.0	-1.0	-1.0	-1.0	-1.0	-1.0	0.0	marker	peace	Peace	24	0418
-68176.395	-54777.869999999995	-104462.19	-18372.825	0.0	0.0	0.0	0.0	0.0	0.0	0.0	0.0	0.0	0.0	0.0	0.0	0.0	0.0	145.79310344827584	0.0	0.06018051	-0.07153302	1.00976304	3.41824	0.88508	-0.74774	3283564.0	1776544957.520779	0.0	1.0	-1.0	-1.0	-1.0	-1.0	-1.0	-1.0	-1.0	-1.0	0.0	marker	peace	Peace	24	0418
-68414.67	-54803.204999999994	-104636.87999999999	-18536.04	0.0	0.0	0.0	0.0	0.0	0.0	0.0	0.0	0.0	0.0	0.0	0.0	0.0	0.0	145.79310344827584	0.0	0.06018051	-0.07153302	1.00976304	3.41824	0.88508	-0.74774	3283565.0	1776544957.524613	0.0	1.0	-1.0	-1.0	-1.0	-1.0	-1.0	-1.0	-1.0	-1.0	0.0	marker	peace	Peace	24	0418
-68434.245	-54830.295	-104640.84	-18530.1	0.0	0.0	0.0	0.0	0.0	0.0	0.0	0.0	0.0	0.0	0.0	0.0	0.0	0.0	145.79310344827584	0.0	0.06018051	-0.07153302	1.00976304	3.41824	0.88508	-0.74774	3283566.0	1776544957.524642	0.0	1.0	-1.0	-1.0	-1.0	-1.0	-1.0	-1.0	-1.0	-1.0	0.0	marker	peace	Peace	24	0418
-68356.17	-54819.9	-104591.655	-18486.855	0.0	0.0	0.0	0.0	0.0	0.0	0.0	0.0	0.0	0.0	0.0	0.0	0.0	0.0	145.79310344827584	0.0	0.05517564	-0.070373355	1.014951015	2.91466	0.7019599999999999	-0.77826	3283567.0	1776544957.527195	0.0	1.0	-1.0	-1.0	-1.0	-1.0	-1.0	-1.0	-1.0	-1.0	0.0	marker	peace	Peace	24	0418
-68330.565	-54809.055	-104607.09	-18493.739999999998	0.0	0.0	0.0	0.0	0.0	0.0	0.0	0.0	0.0	0.0	0.0	0.0	0.0	0.0	145.79310344827584	0.0	0.05517564	-0.070373355	1.014951015	2.91466	0.7019599999999999	-0.77826	3283568.0	1776544957.527232	0.0	1.0	-1.0	-1.0	-1.0	-1.0	-1.0	-1.0	-1.0	-1.0	0.0	marker	peace	Peace	24	0418
-68260.095	-54786.735	-104531.76	-18428.489999999998	0.0	0.0	0.0	0.0	0.0	0.0	0.0	0.0	0.0	0.0	0.0	0.0	0.0	0.0	145.79310344827584	0.0	0.05517564	-0.070373355	1.014951015	2.91466	0.7019599999999999	-0.77826	3283569.0	1776544957.531224	0.0	1.0	-1.0	-1.0	-1.0	-1.0	-1.0	-1.0	-1.0	-1.0	0.0	marker	peace	Peace	24	0418
-68210.37	-54769.14	-104475.465	-18391.364999999998	0.0	0.0	0.0	0.0	0.0	0.0	0.0	0.0	0.0	0.0	0.0	0.0	0.0	0.0	145.79310344827584	0.0	0.05517564	-0.070373355	1.014951015	2.91466	0.7019599999999999	-0.77826	3283570.0	1776544957.531248	0.0	1.0	-1.0	-1.0	-1.0	-1.0	-1.0	-1.0	-1.0	-1.0	0.0	marker	peace	Peace	24	0418
-68347.08	-54765.494999999995	-104583.015	-18479.43	0.0	0.0	0.0	0.0	0.0	0.0	0.0	0.0	0.0	0.0	0.0	0.0	0.0	0.0	145.79310344827584	0.0	0.05517564	-0.070373355	1.014951015	2.91466	0.7019599999999999	-0.77826	3283571.0	1776544957.535185	0.0	1.0	-1.0	-1.0	-1.0	-1.0	-1.0	-1.0	-1.0	-1.0	0.0	marker	peace	Peace	24	0418
-68365.08	-54761.22	-104620.68	-18524.7	0.0	0.0	0.0	0.0	0.0	0.0	0.0	0.0	0.0	0.0	0.0	0.0	0.0	0.0	145.79310344827584	0.0	0.05517564	-0.070373355	1.014951015	2.91466	0.7019599999999999	-0.77826	3283572.0	1776544957.535206	0.0	1.0	-1.0	-1.0	-1.0	-1.0	-1.0	-1.0	-1.0	-1.0	0.0	marker	peace	Peace	24	0418
-68325.3	-54755.325	-104590.98	-18485.505	0.0	0.0	0.0	0.0	0.0	0.0	0.0	0.0	0.0	0.0	0.0	0.0	0.0	0.0	145.79310344827584	0.0	0.05517564	-0.070373355	1.014951015	2.91466	0.7019599999999999	-0.77826	3283573.0	1776544957.539284	0.0	1.0	-1.0	-1.0	-1.0	-1.0	-1.0	-1.0	-1.0	-1.0	0.0	marker	peace	Peace	24	0418
-68311.305	-54753.479999999996	-104574.06	-18463.545	0.0	0.0	0.0	0.0	0.0	0.0	0.0	0.0	0.0	0.0	0.0	0.0	0.0	0.0	145.79310344827584	0.0	0.05517564	-0.070373355	1.014951015	2.91466	0.7019599999999999	-0.77826	3283574.0	1776544957.539311	0.0	1.0	-1.0	-1.0	-1.0	-1.0	-1.0	-1.0	-1.0	-1.0	0.0	marker	peace	Peace	24	0418
-68282.955	-54751.68	-104577.61499999999	-18464.219999999998	0.0	0.0	0.0	0.0	0.0	0.0	0.0	0.0	0.0	0.0	0.0	0.0	0.0	0.0	145.79310344827584	0.0	0.05517564	-0.070373355	1.014951015	2.91466	0.7019599999999999	-0.77826	3283575.0	1776544957.543299	0.0	1.0	-1.0	-1.0	-1.0	-1.0	-1.0	-1.0	-1.0	-1.0	0.0	marker	peace	Peace	24	0418
-68337.18	-54746.954999999994	-104624.73	-18495.135	0.0	0.0	0.0	0.0	0.0	0.0	0.0	0.0	0.0	0.0	0.0	0.0	0.0	0.0	145.79310344827584	0.0	0.05517564	-0.070373355	1.014951015	2.91466	0.7019599999999999	-0.77826	3283576.0	1776544957.543321	0.0	1.0	-1.0	-1.0	-1.0	-1.0	-1.0	-1.0	-1.0	-1.0	0.0	marker	peace	Peace	24	0418
-68379.03	-54755.055	-104630.715	-18506.745	0.0	0.0	0.0	0.0	0.0	0.0	0.0	0.0	0.0	0.0	0.0	0.0	0.0	0.0	145.79310344827584	0.0	0.052184925	-0.0683592	1.01708724	2.33478	0.12208	-1.09872	3283577.0	1776544957.54729	0.0	1.0	-1.0	-1.0	-1.0	-1.0	-1.0	-1.0	-1.0	-1.0	0.0	marker	peace	Peace	24	0418
-68331.19499999999	-54754.784999999996	-104581.845	-18478.215	0.0	0.0	0.0	0.0	0.0	0.0	0.0	0.0	0.0	0.0	0.0	0.0	0.0	0.0	145.79310344827584	0.0	0.052184925	-0.0683592	1.01708724	2.33478	0.12208	-1.09872	3283578.0	1776544957.547318	0.0	1.0	-1.0	-1.0	-1.0	-1.0	-1.0	-1.0	-1.0	-1.0	0.0	marker	peace	Peace	24	0418
-68303.43	-54754.02	-104564.43	-18466.155	0.0	0.0	0.0	0.0	0.0	0.0	0.0	0.0	0.0	0.0	0.0	0.0	0.0	0.0	145.79310344827584	0.0	0.052184925	-0.0683592	1.01708724	2.33478	0.12208	-1.09872	3283579.0	1776544957.551436	0.0	1.0	-1.0	-1.0	-1.0	-1.0	-1.0	-1.0	-1.0	-1.0	0.0	marker	peace	Peace	24	0418
-68277.015	-54764.145	-104544.98999999999	-18446.399999999998	0.0	0.0	0.0	0.0	0.0	0.0	0.0	0.0	0.0	0.0	0.0	0.0	0.0	0.0	145.79310344827584	0.0	0.052184925	-0.0683592	1.01708724	2.33478	0.12208	-1.09872	3283580.0	1776544957.551457	0.0	1.0	-1.0	-1.0	-1.0	-1.0	-1.0	-1.0	-1.0	-1.0	0.0	marker	peace	Peace	24	0418
-68281.2	-54775.619999999995	-104553.72	-18440.954999999998	0.0	0.0	0.0	0.0	0.0	0.0	0.0	0.0	0.0	0.0	0.0	0.0	0.0	0.0	145.79310344827584	0.0	0.052184925	-0.0683592	1.01708724	2.33478	0.12208	-1.09872	3283581.0	1776544957.555275	0.0	1.0	-1.0	-1.0	-1.0	-1.0	-1.0	-1.0	-1.0	-1.0	0.0	marker	peace	Peace	24	0418
-68264.09999999999	-54772.829999999994	-104530.905	-18436.545	0.0	0.0	0.0	0.0	0.0	0.0	0.0	0.0	0.0	0.0	0.0	0.0	0.0	0.0	145.79310344827584	0.0	0.052184925	-0.0683592	1.01708724	2.33478	0.12208	-1.09872	3283582.0	1776544957.555291	0.0	1.0	-1.0	-1.0	-1.0	-1.0	-1.0	-1.0	-1.0	-1.0	0.0	marker	peace	Peace	24	0418
-68256.72	-54769.229999999996	-104520.105	-18444.285	0.0	0.0	0.0	0.0	0.0	0.0	0.0	0.0	0.0	0.0	0.0	0.0	0.0	0.0	145.79310344827584	0.0	0.052184925	-0.0683592	1.01708724	2.33478	0.12208	-1.09872	3283583.0	1776544957.560381	0.0	1.0	-1.0	-1.0	-1.0	-1.0	-1.0	-1.0	-1.0	-1.0	0.0	marker	peace	Peace	24	0418
-68268.915	-54763.29	-104529.15	-18420.255	0.0	0.0	0.0	0.0	0.0	0.0	0.0	0.0	0.0	0.0	0.0	0.0	0.0	0.0	145.79310344827584	0.0	0.052184925	-0.0683592	1.01708724	2.33478	0.12208	-1.09872	3283584.0	1776544957.560401	0.0	1.0	-1.0	-1.0	-1.0	-1.0	-1.0	-1.0	-1.0	-1.0	0.0	marker	peace	Peace	24	0418
-68374.8	-54760.005	-104570.685	-18469.755	0.0	0.0	0.0	0.0	0.0	0.0	0.0	0.0	0.0	0.0	0.0	0.0	0.0	0.0	145.79310344827584	0.0	0.052184925	-0.0683592	1.01708724	2.33478	0.12208	-1.09872	3283585.0	1776544957.563324	0.0	1.0	-1.0	-1.0	-1.0	-1.0	-1.0	-1.0	-1.0	-1.0	0.0	marker	peace	Peace	24	0418
-68376.59999999999	-54756.72	-104584.14	-18489.015	0.0	0.0	0.0	0.0	0.0	0.0	0.0	0.0	0.0	0.0	0.0	0.0	0.0	0.0	145.79310344827584	0.0	0.052184925	-0.0683592	1.01708724	2.33478	0.12208	-1.09872	3283586.0	1776544957.563355	0.0	1.0	-1.0	-1.0	-1.0	-1.0	-1.0	-1.0	-1.0	-1.0	0.0	marker	peace	Peace	24	0418
-68320.575	-54752.4	-104574.42	-18481.59	0.0	0.0	0.0	0.0	0.0	0.0	0.0	0.0	0.0	0.0	0.0	0.0	0.0	0.0	145.79310344827584	0.0	0.05432115	-0.067321605	1.02026106	2.99096	-0.24416	-0.50358	3283587.0	1776544957.567462	0.0	1.0	-1.0	-1.0	-1.0	-1.0	-1.0	-1.0	-1.0	-1.0	0.0	marker	peace	Peace	24	0418
-68330.925	-54751.994999999995	-104606.19	-18488.34	0.0	0.0	0.0	0.0	0.0	0.0	0.0	0.0	0.0	0.0	0.0	0.0	0.0	0.0	145.79310344827584	0.0	0.05432115	-0.067321605	1.02026106	2.99096	-0.24416	-0.50358	3283588.0	1776544957.567482	0.0	1.0	-1.0	-1.0	-1.0	-1.0	-1.0	-1.0	-1.0	-1.0	0.0	marker	peace	Peace	24	0418
-68271.795	-54758.52	-104586.345	-18436.094999999998	0.0	0.0	0.0	0.0	0.0	0.0	0.0	0.0	0.0	0.0	0.0	0.0	0.0	0.0	145.79310344827584	0.0	0.05432115	-0.067321605	1.02026106	2.99096	-0.24416	-0.50358	3283589.0	1776544957.573133	0.0	1.0	-1.0	-1.0	-1.0	-1.0	-1.0	-1.0	-1.0	-1.0	0.0	marker	peace	Peace	24	0418
-68271.93	-54755.775	-104567.355	-18433.079999999998	0.0	0.0	0.0	0.0	0.0	0.0	0.0	0.0	0.0	0.0	0.0	0.0	0.0	0.0	145.79310344827584	0.0	0.05432115	-0.067321605	1.02026106	2.99096	-0.24416	-0.50358	3283590.0	1776544957.573155	0.0	1.0	-1.0	-1.0	-1.0	-1.0	-1.0	-1.0	-1.0	-1.0	0.0	marker	peace	Peace	24	0418
-68323.59	-54760.59	-104585.265	-18475.649999999998	0.0	0.0	0.0	0.0	0.0	0.0	0.0	0.0	0.0	0.0	0.0	0.0	0.0	0.0	145.79310344827584	0.0	0.05432115	-0.067321605	1.02026106	2.99096	-0.24416	-0.50358	3283591.0	1776544957.576538	0.0	1.0	-1.0	-1.0	-1.0	-1.0	-1.0	-1.0	-1.0	-1.0	0.0	marker	peace	Peace	24	0418
-68288.44499999999	-54769.814999999995	-104533.33499999999	-18420.3	0.0	0.0	0.0	0.0	0.0	0.0	0.0	0.0	0.0	0.0	0.0	0.0	0.0	0.0	145.79310344827584	0.0	0.05432115	-0.067321605	1.02026106	2.99096	-0.24416	-0.50358	3283592.0	1776544957.576556	0.0	1.0	-1.0	-1.0	-1.0	-1.0	-1.0	-1.0	-1.0	-1.0	0.0	marker	peace	Peace	24	0418
-68276.295	-54779.939999999995	-104549.58	-18426.015	0.0	0.0	0.0	0.0	0.0	0.0	0.0	0.0	0.0	0.0	0.0	0.0	0.0	0.0	145.79310344827584	0.0	0.05432115	-0.067321605	1.02026106	2.99096	-0.24416	-0.50358	3283593.0	1776544957.579803	0.0	1.0	-1.0	-1.0	-1.0	-1.0	-1.0	-1.0	-1.0	-1.0	0.0	marker	peace	Peace	24	0418
-68275.395	-54785.7	-104549.84999999999	-18430.11	0.0	0.0	0.0	0.0	0.0	0.0	0.0	0.0	0.0	0.0	0.0	0.0	0.0	0.0	145.79310344827584	0.0	0.05432115	-0.067321605	1.02026106	2.99096	-0.24416	-0.50358	3283594.0	1776544957.579825	0.0	1.0	-1.0	-1.0	-1.0	-1.0	-1.0	-1.0	-1.0	-1.0	0.0	marker	peace	Peace	24	0418
-68304.59999999999	-54779.715	-104579.325	-18461.204999999998	0.0	0.0	0.0	0.0	0.0	0.0	0.0	0.0	0.0	0.0	0.0	0.0	0.0	0.0	145.79310344827584	0.0	0.05432115	-0.067321605	1.02026106	2.99096	-0.24416	-0.50358	3283595.0	1776544957.583487	0.0	1.0	-1.0	-1.0	-1.0	-1.0	-1.0	-1.0	-1.0	-1.0	0.0	marker	peace	Peace	24	0418
-68325.345	-54768.015	-104588.685	-18476.73	0.0	0.0	0.0	0.0	0.0	0.0	0.0	0.0	0.0	0.0	0.0	0.0	0.0	0.0	145.79310344827584	0.0	0.05432115	-0.067321605	1.02026106	2.99096	-0.24416	-0.50358	3283596.0	1776544957.583518	0.0	1.0	-1.0	-1.0	-1.0	-1.0	-1.0	-1.0	-1.0	-1.0	0.0	marker	peace	Peace	24	0418
-68348.79	-54769.095	-104626.17	-18513.989999999998	0.0	0.0	0.0	0.0	0.0	0.0	0.0	0.0	0.0	0.0	0.0	0.0	0.0	0.0	145.79310344827584	0.0	0.054870465	-0.066955395	1.01623275	3.38772	-0.03052	-0.8392999999999999	3283597.0	1776544957.587413	0.0	1.0	-1.0	-1.0	-1.0	-1.0	-1.0	-1.0	-1.0	-1.0	0.0	marker	peace	Peace	24	0418
-68289.12	-54770.895	-104588.415	-18497.745	0.0	0.0	0.0	0.0	0.0	0.0	0.0	0.0	0.0	0.0	0.0	0.0	0.0	0.0	145.79310344827584	0.0	0.054870465	-0.066955395	1.01623275	3.38772	-0.03052	-0.8392999999999999	3283598.0	1776544957.587443	0.0	1.0	-1.0	-1.0	-1.0	-1.0	-1.0	-1.0	-1.0	-1.0	0.0	marker	peace	Peace	24	0418
-68209.29	-54767.88	-104491.215	-18403.425	0.0	0.0	0.0	0.0	0.0	0.0	0.0	0.0	0.0	0.0	0.0	0.0	0.0	0.0	145.79310344827584	0.0	0.054870465	-0.066955395	1.01623275	3.38772	-0.03052	-0.8392999999999999	3283599.0	1776544957.591909	0.0	1.0	-1.0	-1.0	-1.0	-1.0	-1.0	-1.0	-1.0	-1.0	0.0	marker	peace	Peace	24	0418
-68297.805	-54778.365	-104541.3	-18423.765	0.0	0.0	0.0	0.0	0.0	0.0	0.0	0.0	0.0	0.0	0.0	0.0	0.0	0.0	145.79310344827584	0.0	0.054870465	-0.066955395	1.01623275	3.38772	-0.03052	-0.8392999999999999	3283600.0	1776544957.591932	0.0	1.0	-1.0	-1.0	-1.0	-1.0	-1.0	-1.0	-1.0	-1.0	0.0	marker	peace	Peace	24	0418
-68386.95	-54793.439999999995	-104638.31999999999	-18521.64	0.0	0.0	0.0	0.0	0.0	0.0	0.0	0.0	0.0	0.0	0.0	0.0	0.0	0.0	145.79310344827584	0.0	0.054870465	-0.066955395	1.01623275	3.38772	-0.03052	-0.8392999999999999	3283601.0	1776544957.5954	0.0	1.0	-1.0	-1.0	-1.0	-1.0	-1.0	-1.0	-1.0	-1.0	0.0	marker	peace	Peace	24	0418
-68347.08	-54796.14	-104589.62999999999	-18492.165	0.0	0.0	0.0	0.0	0.0	0.0	0.0	0.0	0.0	0.0	0.0	0.0	0.0	0.0	145.79310344827584	0.0	0.054870465	-0.066955395	1.01623275	3.38772	-0.03052	-0.8392999999999999	3283602.0	1776544957.595414	0.0	1.0	-1.0	-1.0	-1.0	-1.0	-1.0	-1.0	-1.0	-1.0	0.0	marker	peace	Peace	24	0418
-68312.52	-54788.895	-104565.825	-18477.899999999998	0.0	0.0	0.0	0.0	0.0	0.0	0.0	0.0	0.0	0.0	0.0	0.0	0.0	0.0	145.79310344827584	0.0	0.054870465	-0.066955395	1.01623275	3.38772	-0.03052	-0.8392999999999999	3283603.0	1776544957.599888	0.0	1.0	-1.0	-1.0	-1.0	-1.0	-1.0	-1.0	-1.0	-1.0	0.0	marker	peace	Peace	24	0418
-68244.39	-54783.27	-104516.955	-18419.355	0.0	0.0	0.0	0.0	0.0	0.0	0.0	0.0	0.0	0.0	0.0	0.0	0.0	0.0	145.79310344827584	0.0	0.054870465	-0.066955395	1.01623275	3.38772	-0.03052	-0.8392999999999999	3283604.0	1776544957.599918	0.0	1.0	-1.0	-1.0	-1.0	-1.0	-1.0	-1.0	-1.0	-1.0	0.0	marker	peace	Peace	24	0418
-68288.13	-54785.79	-104578.605	-18457.92	0.0	0.0	0.0	0.0	0.0	0.0	0.0	0.0	0.0	0.0	0.0	0.0	0.0	0.0	145.79310344827584	0.0	0.054870465	-0.066955395	1.01623275	3.38772	-0.03052	-0.8392999999999999	3283605.0	1776544957.603574	0.0	1.0	-1.0	-1.0	-1.0	-1.0	-1.0	-1.0	-1.0	-1.0	0.0	marker	peace	Peace	24	0418
-68336.86499999999	-54788.895	-104606.415	-18483.12	0.0	0.0	0.0	0.0	0.0	0.0	0.0	0.0	0.0	0.0	0.0	0.0	0.0	0.0	145.79310344827584	0.0	0.054870465	-0.066955395	1.01623275	3.38772	-0.03052	-0.8392999999999999	3283606.0	1776544957.603601	0.0	1.0	-1.0	-1.0	-1.0	-1.0	-1.0	-1.0	-1.0	-1.0	0.0	marker	peace	Peace	24	0418
-68369.04	-54801.18	-104619.735	-18502.515	0.0	0.0	0.0	0.0	0.0	0.0	0.0	0.0	0.0	0.0	0.0	0.0	0.0	0.0	145.79310344827584	0.0	0.056884620000000004	-0.06848127	1.01403549	3.4335	0.10682	-0.6103999999999999	3283607.0	1776544957.607938	0.0	1.0	-1.0	-1.0	-1.0	-1.0	-1.0	-1.0	-1.0	-1.0	0.0	marker	peace	Peace	24	0418
-68324.94	-54812.564999999995	-104584.095	-18468.45	0.0	0.0	0.0	0.0	0.0	0.0	0.0	0.0	0.0	0.0	0.0	0.0	0.0	0.0	145.79310344827584	0.0	0.056884620000000004	-0.06848127	1.01403549	3.4335	0.10682	-0.6103999999999999	3283608.0	1776544957.607959	0.0	1.0	-1.0	-1.0	-1.0	-1.0	-1.0	-1.0	-1.0	-1.0	0.0	marker	peace	Peace	24	0418
-68255.28	-54810.9	-104524.92	-18416.43	0.0	0.0	0.0	0.0	0.0	0.0	0.0	0.0	0.0	0.0	0.0	0.0	0.0	0.0	145.79310344827584	0.0	0.056884620000000004	-0.06848127	1.01403549	3.4335	0.10682	-0.6103999999999999	3283609.0	1776544957.613317	0.0	1.0	-1.0	-1.0	-1.0	-1.0	-1.0	-1.0	-1.0	-1.0	0.0	marker	peace	Peace	24	0418
-68329.89	-54807.165	-104596.605	-18487.079999999998	0.0	0.0	0.0	0.0	0.0	0.0	0.0	0.0	0.0	0.0	0.0	0.0	0.0	0.0	145.79310344827584	0.0	0.056884620000000004	-0.06848127	1.01403549	3.4335	0.10682	-0.6103999999999999	3283610.0	1776544957.613347	0.0	1.0	-1.0	-1.0	-1.0	-1.0	-1.0	-1.0	-1.0	-1.0	0.0	marker	peace	Peace	24	0418
-68381.055	-54781.38	-104656.455	-18539.864999999998	0.0	0.0	0.0	0.0	0.0	0.0	0.0	0.0	0.0	0.0	0.0	0.0	0.0	0.0	145.79310344827584	0.0	0.056884620000000004	-0.06848127	1.01403549	3.4335	0.10682	-0.6103999999999999	3283611.0	1776544957.615522	0.0	1.0	-1.0	-1.0	-1.0	-1.0	-1.0	-1.0	-1.0	-1.0	0.0	marker	peace	Peace	24	0418
-68379.48	-54759.735	-104636.565	-18505.53	0.0	0.0	0.0	0.0	0.0	0.0	0.0	0.0	0.0	0.0	0.0	0.0	0.0	0.0	145.79310344827584	0.0	0.056884620000000004	-0.06848127	1.01403549	3.4335	0.10682	-0.6103999999999999	3283612.0	1776544957.615554	0.0	1.0	-1.0	-1.0	-1.0	-1.0	-1.0	-1.0	-1.0	-1.0	0.0	marker	peace	Peace	24	0418
-68308.33499999999	-54755.055	-104559.61499999999	-18435.285	0.0	0.0	0.0	0.0	0.0	0.0	0.0	0.0	0.0	0.0	0.0	0.0	0.0	0.0	145.79310344827584	0.0	0.056884620000000004	-0.06848127	1.01403549	3.4335	0.10682	-0.6103999999999999	3283613.0	1776544957.619578	0.0	1.0	-1.0	-1.0	-1.0	-1.0	-1.0	-1.0	-1.0	-1.0	0.0	marker	peace	Peace	24	0418
-68271.12	-54758.25	-104541.03	-18433.665	0.0	0.0	0.0	0.0	0.0	0.0	0.0	0.0	0.0	0.0	0.0	0.0	0.0	0.0	145.79310344827584	0.0	0.056884620000000004	-0.06848127	1.01403549	3.4335	0.10682	-0.6103999999999999	3283614.0	1776544957.619604	0.0	1.0	-1.0	-1.0	-1.0	-1.0	-1.0	-1.0	-1.0	-1.0	0.0	marker	peace	Peace	24	0418
-68290.425	-54770.805	-104564.565	-18460.53	0.0	0.0	0.0	0.0	0.0	0.0	0.0	0.0	0.0	0.0	0.0	0.0	0.0	0.0	145.79310344827584	0.0	0.056884620000000004	-0.06848127	1.01403549	3.4335	0.10682	-0.6103999999999999	3283615.0	1776544957.628006	0.0	1.0	-1.0	-1.0	-1.0	-1.0	-1.0	-1.0	-1.0	-1.0	0.0	marker	peace	Peace	24	0418
-68345.73	-54786.689999999995	-104580.94499999999	-18480.239999999998	0.0	0.0	0.0	0.0	0.0	0.0	0.0	0.0	0.0	0.0	0.0	0.0	0.0	0.0	145.79310344827584	0.0	0.056884620000000004	-0.06848127	1.01403549	3.4335	0.10682	-0.6103999999999999	3283616.0	1776544957.628022	0.0	1.0	-1.0	-1.0	-1.0	-1.0	-1.0	-1.0	-1.0	-1.0	0.0	marker	peace	Peace	24	0418
-68347.44	-54788.895	-104587.56	-18485.82	0.0	0.0	0.0	0.0	0.0	0.0	0.0	0.0	0.0	0.0	0.0	0.0	0.0	0.0	145.79310344827584	0.0	0.05529771	-0.0683592	1.00927476	3.2351199999999998	1.0224199999999999	-0.6714399999999999	3283617.0	1776544957.628044	0.0	1.0	-1.0	-1.0	-1.0	-1.0	-1.0	-1.0	-1.0	-1.0	0.0	marker	peace	Peace	24	0418
-68294.16	-54786.78	-104557.095	-18463.59	0.0	0.0	0.0	0.0	0.0	0.0	0.0	0.0	0.0	0.0	0.0	0.0	0.0	0.0	145.79310344827584	0.0	0.05529771	-0.0683592	1.00927476	3.2351199999999998	1.0224199999999999	-0.6714399999999999	3283618.0	1776544957.628054	0.0	1.0	-1.0	-1.0	-1.0	-1.0	-1.0	-1.0	-1.0	-1.0	0.0	marker	peace	Peace	24	0418
-68290.605	-54784.665	-104520.105	-18439.785	0.0	0.0	0.0	0.0	0.0	0.0	0.0	0.0	0.0	0.0	0.0	0.0	0.0	0.0	145.79310344827584	0.0	0.05529771	-0.0683592	1.00927476	3.2351199999999998	1.0224199999999999	-0.6714399999999999	3283619.0	1776544957.631505	0.0	1.0	-1.0	-1.0	-1.0	-1.0	-1.0	-1.0	-1.0	-1.0	0.0	marker	peace	Peace	24	0418
-68308.02	-54792.045	-104543.19	-18459.405	0.0	0.0	0.0	0.0	0.0	0.0	0.0	0.0	0.0	0.0	0.0	0.0	0.0	0.0	145.79310344827584	0.0	0.05529771	-0.0683592	1.00927476	3.2351199999999998	1.0224199999999999	-0.6714399999999999	3283620.0	1776544957.631522	0.0	1.0	-1.0	-1.0	-1.0	-1.0	-1.0	-1.0	-1.0	-1.0	0.0	marker	peace	Peace	24	0418
-68309.955	-54798.704999999994	-104558.58	-18472.905	0.0	0.0	0.0	0.0	0.0	0.0	0.0	0.0	0.0	0.0	0.0	0.0	0.0	0.0	145.79310344827584	0.0	0.05529771	-0.0683592	1.00927476	3.2351199999999998	1.0224199999999999	-0.6714399999999999	3283621.0	1776544957.635357	0.0	1.0	-1.0	-1.0	-1.0	-1.0	-1.0	-1.0	-1.0	-1.0	0.0	marker	peace	Peace	24	0418
-68317.65	-54794.97	-104585.175	-18495.09	0.0	0.0	0.0	0.0	0.0	0.0	0.0	0.0	0.0	0.0	0.0	0.0	0.0	0.0	145.79310344827584	0.0	0.05529771	-0.0683592	1.00927476	3.2351199999999998	1.0224199999999999	-0.6714399999999999	3283622.0	1776544957.635378	0.0	1.0	-1.0	-1.0	-1.0	-1.0	-1.0	-1.0	-1.0	-1.0	0.0	marker	peace	Peace	24	0418
-68322.42	-54795.24	-104617.08	-18493.965	0.0	0.0	0.0	0.0	0.0	0.0	0.0	0.0	0.0	0.0	0.0	0.0	0.0	0.0	145.79310344827584	0.0	0.05529771	-0.0683592	1.00927476	3.2351199999999998	1.0224199999999999	-0.6714399999999999	3283623.0	1776544957.639634	0.0	1.0	-1.0	-1.0	-1.0	-1.0	-1.0	-1.0	-1.0	-1.0	0.0	marker	peace	Peace	24	0418
-68354.55	-54807.659999999996	-104601.465	-18464.04	0.0	0.0	0.0	0.0	0.0	0.0	0.0	0.0	0.0	0.0	0.0	0.0	0.0	0.0	145.79310344827584	0.0	0.05529771	-0.0683592	1.00927476	3.2351199999999998	1.0224199999999999	-0.6714399999999999	3283624.0	1776544957.639651	0.0	1.0	-1.0	-1.0	-1.0	-1.0	-1.0	-1.0	-1.0	-1.0	0.0	marker	peace	Peace	24	0418
-68352.03	-54820.215	-104559.705	-18449.684999999998	0.0	0.0	0.0	0.0	0.0	0.0	0.0	0.0	0.0	0.0	0.0	0.0	0.0	0.0	145.79310344827584	0.0	0.05529771	-0.0683592	1.00927476	3.2351199999999998	1.0224199999999999	-0.6714399999999999	3283625.0	1776544957.643628	0.0	1.0	-1.0	-1.0	-1.0	-1.0	-1.0	-1.0	-1.0	-1.0	0.0	marker	peace	Peace	24	0418
-68324.44499999999	-54827.954999999994	-104543.55	-18455.265	0.0	0.0	0.0	0.0	0.0	0.0	0.0	0.0	0.0	0.0	0.0	0.0	0.0	0.0	145.79310344827584	0.0	0.05529771	-0.0683592	1.00927476	3.2351199999999998	1.0224199999999999	-0.6714399999999999	3283626.0	1776544957.643649	0.0	1.0	-1.0	-1.0	-1.0	-1.0	-1.0	-1.0	-1.0	-1.0	0.0	marker	peace	Peace	24	0418
-68282.685	-54839.924999999996	-104572.08	-18428.265	0.0	0.0	0.0	0.0	0.0	0.0	0.0	0.0	0.0	0.0	0.0	0.0	0.0	0.0	145.79310344827584	0.0	0.057922215	-0.06921369	1.006284045	2.09062	1.43444	-0.28994	3283627.0	1776544957.648613	0.0	1.0	-1.0	-1.0	-1.0	-1.0	-1.0	-1.0	-1.0	-1.0	0.0	marker	peace	Peace	24	0418
-68118.20999999999	-54826.02	-104461.2	-18319.14	0.0	0.0	0.0	0.0	0.0	0.0	0.0	0.0	0.0	0.0	0.0	0.0	0.0	0.0	145.79310344827584	0.0	0.057922215	-0.06921369	1.006284045	2.09062	1.43444	-0.28994	3283628.0	1776544957.648641	0.0	1.0	-1.0	-1.0	-1.0	-1.0	-1.0	-1.0	-1.0	-1.0	0.0	marker	peace	Peace	24	0418
-68278.59	-54824.67	-104568.795	-18451.89	0.0	0.0	0.0	0.0	0.0	0.0	0.0	0.0	0.0	0.0	0.0	0.0	0.0	0.0	145.79310344827584	0.0	0.057922215	-0.06921369	1.006284045	2.09062	1.43444	-0.28994	3283629.0	1776544957.651641	0.0	1.0	-1.0	-1.0	-1.0	-1.0	-1.0	-1.0	-1.0	-1.0	0.0	marker	peace	Peace	24	0418
-68423.265	-54834.345	-104680.62	-18551.07	0.0	0.0	0.0	0.0	0.0	0.0	0.0	0.0	0.0	0.0	0.0	0.0	0.0	0.0	145.79310344827584	0.0	0.057922215	-0.06921369	1.006284045	2.09062	1.43444	-0.28994	3283630.0	1776544957.651659	0.0	1.0	-1.0	-1.0	-1.0	-1.0	-1.0	-1.0	-1.0	-1.0	0.0	marker	peace	Peace	24	0418
-68378.715	-54828.314999999995	-104639.805	-18518.489999999998	0.0	0.0	0.0	0.0	0.0	0.0	0.0	0.0	0.0	0.0	0.0	0.0	0.0	0.0	145.79310344827584	0.0	0.057922215	-0.06921369	1.006284045	2.09062	1.43444	-0.28994	3283631.0	1776544957.655888	0.0	1.0	-1.0	-1.0	-1.0	-1.0	-1.0	-1.0	-1.0	-1.0	0.0	marker	peace	Peace	24	0418
-68314.995	-54821.295	-104587.92	-18480.87	0.0	0.0	0.0	0.0	0.0	0.0	0.0	0.0	0.0	0.0	0.0	0.0	0.0	0.0	145.79310344827584	0.0	0.057922215	-0.06921369	1.006284045	2.09062	1.43444	-0.28994	3283632.0	1776544957.655908	0.0	1.0	-1.0	-1.0	-1.0	-1.0	-1.0	-1.0	-1.0	-1.0	0.0	marker	peace	Peace	24	0418
-68309.73	-54826.11	-104573.11499999999	-18460.575	0.0	0.0	0.0	0.0	0.0	0.0	0.0	0.0	0.0	0.0	0.0	0.0	0.0	0.0	145.79310344827584	0.0	0.057922215	-0.06921369	1.006284045	2.09062	1.43444	-0.28994	3283633.0	1776544957.659605	0.0	1.0	-1.0	-1.0	-1.0	-1.0	-1.0	-1.0	-1.0	-1.0	0.0	marker	peace	Peace	24	0418
-68314.23	-54828.045	-104546.87999999999	-18450.989999999998	0.0	0.0	0.0	0.0	0.0	0.0	0.0	0.0	0.0	0.0	0.0	0.0	0.0	0.0	145.79310344827584	0.0	0.057922215	-0.06921369	1.006284045	2.09062	1.43444	-0.28994	3283634.0	1776544957.659625	0.0	1.0	-1.0	-1.0	-1.0	-1.0	-1.0	-1.0	-1.0	-1.0	0.0	marker	peace	Peace	24	0418
-68279.355	-54826.02	-104502.375	-18433.215	0.0	0.0	0.0	0.0	0.0	0.0	0.0	0.0	0.0	0.0	0.0	0.0	0.0	0.0	145.79310344827584	0.0	0.057922215	-0.06921369	1.006284045	2.09062	1.43444	-0.28994	3283635.0	1776544957.663717	0.0	1.0	-1.0	-1.0	-1.0	-1.0	-1.0	-1.0	-1.0	-1.0	0.0	marker	peace	Peace	24	0418
-68283.405	-54816.345	-104522.67	-18447.03	0.0	0.0	0.0	0.0	0.0	0.0	0.0	0.0	0.0	0.0	0.0	0.0	0.0	0.0	145.79310344827584	0.0	0.057922215	-0.06921369	1.006284045	2.09062	1.43444	-0.28994	3283636.0	1776544957.663739	0.0	1.0	-1.0	-1.0	-1.0	-1.0	-1.0	-1.0	-1.0	-1.0	0.0	marker	peace	Peace	24	0418
-68342.44499999999	-54805.905	-104608.98	-18492.84	0.0	0.0	0.0	0.0	0.0	0.0	0.0	0.0	0.0	0.0	0.0	0.0	0.0	0.0	145.79310344827584	0.0	0.053283555	-0.06579573	1.012753755	2.73154	1.2818399999999999	-0.42728	3283637.0	1776544957.672862	0.0	1.0	-1.0	-1.0	-1.0	-1.0	-1.0	-1.0	-1.0	-1.0	0.0	marker	peace	Peace	24	0418
-68298.61499999999	-54802.439999999995	-104593.905	-18479.565	0.0	0.0	0.0	0.0	0.0	0.0	0.0	0.0	0.0	0.0	0.0	0.0	0.0	0.0	145.79310344827584	0.0	0.053283555	-0.06579573	1.012753755	2.73154	1.2818399999999999	-0.42728	3283638.0	1776544957.672886	0.0	1.0	-1.0	-1.0	-1.0	-1.0	-1.0	-1.0	-1.0	-1.0	0.0	marker	peace	Peace	24	0418
-68273.415	-54806.04	-104583.59999999999	-18440.82	0.0	0.0	0.0	0.0	0.0	0.0	0.0	0.0	0.0	0.0	0.0	0.0	0.0	0.0	145.79310344827584	0.0	0.053283555	-0.06579573	1.012753755	2.73154	1.2818399999999999	-0.42728	3283639.0	1776544957.675542	0.0	1.0	-1.0	-1.0	-1.0	-1.0	-1.0	-1.0	-1.0	-1.0	0.0	marker	peace	Peace	24	0418
-68338.755	-54809.189999999995	-104617.08	-18468.405	0.0	0.0	0.0	0.0	0.0	0.0	0.0	0.0	0.0	0.0	0.0	0.0	0.0	0.0	145.79310344827584	0.0	0.053283555	-0.06579573	1.012753755	2.73154	1.2818399999999999	-0.42728	3283640.0	1776544957.675565	0.0	1.0	-1.0	-1.0	-1.0	-1.0	-1.0	-1.0	-1.0	-1.0	0.0	marker	peace	Peace	24	0418
-68339.06999999999	-54806.265	-104579.685	-18461.925	0.0	0.0	0.0	0.0	0.0	0.0	0.0	0.0	0.0	0.0	0.0	0.0	0.0	0.0	145.79310344827584	0.0	0.053283555	-0.06579573	1.012753755	2.73154	1.2818399999999999	-0.42728	3283641.0	1776544957.67559	0.0	1.0	-1.0	-1.0	-1.0	-1.0	-1.0	-1.0	-1.0	-1.0	0.0	marker	peace	Peace	24	0418
-68341.14	-54797.13	-104539.635	-18455.805	0.0	0.0	0.0	0.0	0.0	0.0	0.0	0.0	0.0	0.0	0.0	0.0	0.0	0.0	145.79310344827584	0.0	0.053283555	-0.06579573	1.012753755	2.73154	1.2818399999999999	-0.42728	3283642.0	1776544957.675603	0.0	1.0	-1.0	-1.0	-1.0	-1.0	-1.0	-1.0	-1.0	-1.0	0.0	marker	peace	Peace	24	0418
-68315.94	-54795.195	-104559.3	-18483.524999999998	0.0	0.0	0.0	0.0	0.0	0.0	0.0	0.0	0.0	0.0	0.0	0.0	0.0	0.0	145.79310344827584	0.0	0.053283555	-0.06579573	1.012753755	2.73154	1.2818399999999999	-0.42728	3283643.0	1776544957.679922	0.0	1.0	-1.0	-1.0	-1.0	-1.0	-1.0	-1.0	-1.0	-1.0	0.0	marker	peace	Peace	24	0418
-68295.42	-54799.515	-104600.47499999999	-18491.489999999998	0.0	0.0	0.0	0.0	0.0	0.0	0.0	0.0	0.0	0.0	0.0	0.0	0.0	0.0	145.79310344827584	0.0	0.053283555	-0.06579573	1.012753755	2.73154	1.2818399999999999	-0.42728	3283644.0	1776544957.679936	0.0	1.0	-1.0	-1.0	-1.0	-1.0	-1.0	-1.0	-1.0	-1.0	0.0	marker	peace	Peace	24	0418
-68291.73	-54792.314999999995	-104567.4	-18457.559999999998	0.0	0.0	0.0	0.0	0.0	0.0	0.0	0.0	0.0	0.0	0.0	0.0	0.0	0.0	145.79310344827584	0.0	0.053283555	-0.06579573	1.012753755	2.73154	1.2818399999999999	-0.42728	3283645.0	1776544957.684761	0.0	1.0	-1.0	-1.0	-1.0	-1.0	-1.0	-1.0	-1.0	-1.0	0.0	marker	peace	Peace	24	0418
-68293.395	-54787.545	-104551.965	-18436.5	0.0	0.0	0.0	0.0	0.0	0.0	0.0	0.0	0.0	0.0	0.0	0.0	0.0	0.0	145.79310344827584	0.0	0.053283555	-0.06579573	1.012753755	2.73154	1.2818399999999999	-0.42728	3283646.0	1776544957.684778	0.0	1.0	-1.0	-1.0	-1.0	-1.0	-1.0	-1.0	-1.0	-1.0	0.0	marker	peace	Peace	24	0418
-68294.88	-54786.195	-104571.0	-18439.649999999998	0.0	0.0	0.0	0.0	0.0	0.0	0.0	0.0	0.0	0.0	0.0	0.0	0.0	0.0	145.79310344827584	0.0	0.057800145000000004	-0.066955395	1.0156224	3.38772	1.4497	-0.2289	3283647.0	1776544957.690081	0.0	1.0	-1.0	-1.0	-1.0	-1.0	-1.0	-1.0	-1.0	-1.0	0.0	marker	peace	Peace	24	0418
-68335.92	-54794.07	-104589.495	-18461.61	0.0	0.0	0.0	0.0	0.0	0.0	0.0	0.0	0.0	0.0	0.0	0.0	0.0	0.0	145.79310344827584	0.0	0.057800145000000004	-0.066955395	1.0156224	3.38772	1.4497	-0.2289	3283648.0	1776544957.690099	0.0	1.0	-1.0	-1.0	-1.0	-1.0	-1.0	-1.0	-1.0	-1.0	0.0	marker	peace	Peace	24	0418
-68342.895	-54813.284999999996	-104593.76999999999	-18478.079999999998	0.0	0.0	0.0	0.0	0.0	0.0	0.0	0.0	0.0	0.0	0.0	0.0	0.0	0.0	145.79310344827584	0.0	0.057800145000000004	-0.066955395	1.0156224	3.38772	1.4497	-0.2289	3283649.0	1776544957.691666	0.0	1.0	-1.0	-1.0	-1.0	-1.0	-1.0	-1.0	-1.0	-1.0	0.0	marker	peace	Peace	24	0418
-68301.63	-54817.155	-104569.33499999999	-18459.54	0.0	0.0	0.0	0.0	0.0	0.0	0.0	0.0	0.0	0.0	0.0	0.0	0.0	0.0	145.79310344827584	0.0	0.057800145000000004	-0.066955395	1.0156224	3.38772	1.4497	-0.2289	3283650.0	1776544957.691681	0.0	1.0	-1.0	-1.0	-1.0	-1.0	-1.0	-1.0	-1.0	-1.0	0.0	marker	peace	Peace	24	0418
-68335.69499999999	-54819.18	-104606.01	-18477.585	0.0	0.0	0.0	0.0	0.0	0.0	0.0	0.0	0.0	0.0	0.0	0.0	0.0	0.0	145.79310344827584	0.0	0.057800145000000004	-0.066955395	1.0156224	3.38772	1.4497	-0.2289	3283651.0	1776544957.695962	0.0	1.0	-1.0	-1.0	-1.0	-1.0	-1.0	-1.0	-1.0	-1.0	0.0	marker	peace	Peace	24	0418
-68314.59	-54817.244999999995	-104594.48999999999	-18464.625	0.0	0.0	0.0	0.0	0.0	0.0	0.0	0.0	0.0	0.0	0.0	0.0	0.0	0.0	145.79310344827584	0.0	0.057800145000000004	-0.066955395	1.0156224	3.38772	1.4497	-0.2289	3283652.0	1776544957.69598	0.0	1.0	-1.0	-1.0	-1.0	-1.0	-1.0	-1.0	-1.0	-1.0	0.0	marker	peace	Peace	24	0418
-68266.485	-54810.18	-104546.745	-18427.815	0.0	0.0	0.0	0.0	0.0	0.0	0.0	0.0	0.0	0.0	0.0	0.0	0.0	0.0	145.79310344827584	0.0	0.057800145000000004	-0.066955395	1.0156224	3.38772	1.4497	-0.2289	3283653.0	1776544957.700374	0.0	1.0	-1.0	-1.0	-1.0	-1.0	-1.0	-1.0	-1.0	-1.0	0.0	marker	peace	Peace	24	0418
-68243.355	-54805.14	-104524.29	-18416.295	0.0	0.0	0.0	0.0	0.0	0.0	0.0	0.0	0.0	0.0	0.0	0.0	0.0	0.0	145.79310344827584	0.0	0.057800145000000004	-0.066955395	1.0156224	3.38772	1.4497	-0.2289	3283654.0	1776544957.7004	0.0	1.0	-1.0	-1.0	-1.0	-1.0	-1.0	-1.0	-1.0	-1.0	0.0	marker	peace	Peace	24	0418
-68325.165	-54808.424999999996	-104609.79	-18502.829999999998	0.0	0.0	0.0	0.0	0.0	0.0	0.0	0.0	0.0	0.0	0.0	0.0	0.0	0.0	145.79310344827584	0.0	0.057800145000000004	-0.066955395	1.0156224	3.38772	1.4497	-0.2289	3283655.0	1776544957.706092	0.0	1.0	-1.0	-1.0	-1.0	-1.0	-1.0	-1.0	-1.0	-1.0	0.0	marker	peace	Peace	24	0418
-68361.705	-54814.77	-104604.075	-18482.13	0.0	0.0	0.0	0.0	0.0	0.0	0.0	0.0	0.0	0.0	0.0	0.0	0.0	0.0	145.79310344827584	0.0	0.057800145000000004	-0.066955395	1.0156224	3.38772	1.4497	-0.2289	3283656.0	1776544957.706107	0.0	1.0	-1.0	-1.0	-1.0	-1.0	-1.0	-1.0	-1.0	-1.0	0.0	marker	peace	Peace	24	0418
-68348.745	-54829.619999999995	-104600.295	-18483.344999999998	0.0	0.0	0.0	0.0	0.0	0.0	0.0	0.0	0.0	0.0	0.0	0.0	0.0	0.0	145.79310344827584	0.0	0.05798325	-0.067687815	1.016904135	3.3266799999999996	1.19028	0.0	3283657.0	1776544957.709663	0.0	1.0	-1.0	-1.0	-1.0	-1.0	-1.0	-1.0	-1.0	-1.0	0.0	marker	peace	Peace	24	0418
-68295.23999999999	-54836.64	-104557.76999999999	-18454.32	0.0	0.0	0.0	0.0	0.0	0.0	0.0	0.0	0.0	0.0	0.0	0.0	0.0	0.0	145.79310344827584	0.0	0.05798325	-0.067687815	1.016904135	3.3266799999999996	1.19028	0.0	3283658.0	1776544957.70968	0.0	1.0	-1.0	-1.0	-1.0	-1.0	-1.0	-1.0	-1.0	-1.0	0.0	marker	peace	Peace	24	0418
-68251.905	-54835.29	-104495.22	-18402.255	0.0	0.0	0.0	0.0	0.0	0.0	0.0	0.0	0.0	0.0	0.0	0.0	0.0	0.0	145.79310344827584	0.0	0.05798325	-0.067687815	1.016904135	3.3266799999999996	1.19028	0.0	3283659.0	1776544957.71193	0.0	1.0	-1.0	-1.0	-1.0	-1.0	-1.0	-1.0	-1.0	-1.0	0.0	marker	peace	Peace	24	0418
-68292.18	-54828.72	-104514.165	-18435.149999999998	0.0	0.0	0.0	0.0	0.0	0.0	0.0	0.0	0.0	0.0	0.0	0.0	0.0	0.0	145.79310344827584	0.0	0.05798325	-0.067687815	1.016904135	3.3266799999999996	1.19028	0.0	3283660.0	1776544957.711945	0.0	1.0	-1.0	-1.0	-1.0	-1.0	-1.0	-1.0	-1.0	-1.0	0.0	marker	peace	Peace	24	0418
-68306.715	-54822.06	-104545.575	-18441.27	0.0	0.0	0.0	0.0	0.0	0.0	0.0	0.0	0.0	0.0	0.0	0.0	0.0	0.0	145.79310344827584	0.0	0.05798325	-0.067687815	1.016904135	3.3266799999999996	1.19028	0.0	3283661.0	1776544957.715809	0.0	1.0	-1.0	-1.0	-1.0	-1.0	-1.0	-1.0	-1.0	-1.0	0.0	marker	peace	Peace	24	0418
-68319.58499999999	-54815.985	-104606.955	-18476.64	0.0	0.0	0.0	0.0	0.0	0.0	0.0	0.0	0.0	0.0	0.0	0.0	0.0	0.0	145.79310344827584	0.0	0.05798325	-0.067687815	1.016904135	3.3266799999999996	1.19028	0.0	3283662.0	1776544957.715818	0.0	1.0	-1.0	-1.0	-1.0	-1.0	-1.0	-1.0	-1.0	-1.0	0.0	marker	peace	Peace	24	0418
-68374.08	-54809.64	-104644.08	-18512.505	0.0	0.0	0.0	0.0	0.0	0.0	0.0	0.0	0.0	0.0	0.0	0.0	0.0	0.0	145.79310344827584	0.0	0.05798325	-0.067687815	1.016904135	3.3266799999999996	1.19028	0.0	3283663.0	1776544957.719917	0.0	1.0	-1.0	-1.0	-1.0	-1.0	-1.0	-1.0	-1.0	-1.0	0.0	marker	peace	Peace	24	0418
-68380.29	-54805.32	-104614.01999999999	-18486.765	0.0	0.0	0.0	0.0	0.0	0.0	0.0	0.0	0.0	0.0	0.0	0.0	0.0	0.0	145.79310344827584	0.0	0.05798325	-0.067687815	1.016904135	3.3266799999999996	1.19028	0.0	3283664.0	1776544957.719937	0.0	1.0	-1.0	-1.0	-1.0	-1.0	-1.0	-1.0	-1.0	-1.0	0.0	marker	peace	Peace	24	0418
-68357.61	-54804.42	-104611.59	-18500.85	0.0	0.0	0.0	0.0	0.0	0.0	0.0	0.0	0.0	0.0	0.0	0.0	0.0	0.0	145.79310344827584	0.0	0.05798325	-0.067687815	1.016904135	3.3266799999999996	1.19028	0.0	3283665.0	1776544957.723922	0.0	1.0	-1.0	-1.0	-1.0	-1.0	-1.0	-1.0	-1.0	-1.0	0.0	marker	peace	Peace	24	0418
-68299.73999999999	-54823.814999999995	-104605.155	-18495.945	0.0	0.0	0.0	0.0	0.0	0.0	0.0	0.0	0.0	0.0	0.0	0.0	0.0	0.0	145.79310344827584	0.0	0.05798325	-0.067687815	1.016904135	3.3266799999999996	1.19028	0.0	3283666.0	1776544957.72393	0.0	1.0	-1.0	-1.0	-1.0	-1.0	-1.0	-1.0	-1.0	-1.0	0.0	marker	peace	Peace	24	0418
-68295.465	-54853.695	-104613.56999999999	-18490.545	0.0	0.0	0.0	0.0	0.0	0.0	0.0	0.0	0.0	0.0	0.0	0.0	0.0	0.0	145.79310344827584	0.0	0.05212389	-0.068542305	1.016537925	4.89846	1.1444999999999999	-0.6103999999999999	3283667.0	1776544957.727794	0.0	1.0	-1.0	-1.0	-1.0	-1.0	-1.0	-1.0	-1.0	-1.0	0.0	marker	peace	Peace	24	0418
-68309.955	-54860.4	-104587.73999999999	-18482.175	0.0	0.0	0.0	0.0	0.0	0.0	0.0	0.0	0.0	0.0	0.0	0.0	0.0	0.0	145.79310344827584	0.0	0.05212389	-0.068542305	1.016537925	4.89846	1.1444999999999999	-0.6103999999999999	3283668.0	1776544957.727801	0.0	1.0	-1.0	-1.0	-1.0	-1.0	-1.0	-1.0	-1.0	-1.0	0.0	marker	peace	Peace	24	0418
-68339.52	-54854.369999999995	-104590.44	-18490.545	0.0	0.0	0.0	0.0	0.0	0.0	0.0	0.0	0.0	0.0	0.0	0.0	0.0	0.0	145.79310344827584	0.0	0.05212389	-0.068542305	1.016537925	4.89846	1.1444999999999999	-0.6103999999999999	3283669.0	1776544957.731834	0.0	1.0	-1.0	-1.0	-1.0	-1.0	-1.0	-1.0	-1.0	-1.0	0.0	marker	peace	Peace	24	0418
-68318.91	-54843.479999999996	-104582.11499999999	-18473.04	0.0	0.0	0.0	0.0	0.0	0.0	0.0	0.0	0.0	0.0	0.0	0.0	0.0	0.0	145.79310344827584	0.0	0.05212389	-0.068542305	1.016537925	4.89846	1.1444999999999999	-0.6103999999999999	3283670.0	1776544957.731841	0.0	1.0	-1.0	-1.0	-1.0	-1.0	-1.0	-1.0	-1.0	-1.0	0.0	marker	peace	Peace	24	0418
-68285.52	-54843.345	-104539.815	-18433.844999999998	0.0	0.0	0.0	0.0	0.0	0.0	0.0	0.0	0.0	0.0	0.0	0.0	0.0	0.0	145.79310344827584	0.0	0.05212389	-0.068542305	1.016537925	4.89846	1.1444999999999999	-0.6103999999999999	3283671.0	1776544957.735937	0.0	1.0	-1.0	-1.0	-1.0	-1.0	-1.0	-1.0	-1.0	-1.0	0.0	marker	peace	Peace	24	0418
-68291.955	-54854.28	-104543.37	-18433.17	0.0	0.0	0.0	0.0	0.0	0.0	0.0	0.0	0.0	0.0	0.0	0.0	0.0	0.0	145.79310344827584	0.0	0.05212389	-0.068542305	1.016537925	4.89846	1.1444999999999999	-0.6103999999999999	3283672.0	1776544957.735952	0.0	1.0	-1.0	-1.0	-1.0	-1.0	-1.0	-1.0	-1.0	-1.0	0.0	marker	peace	Peace	24	0418
-68371.56	-54870.479999999996	-104604.61499999999	-18491.355	0.0	0.0	0.0	0.0	0.0	0.0	0.0	0.0	0.0	0.0	0.0	0.0	0.0	0.0	145.79310344827584	0.0	0.05212389	-0.068542305	1.016537925	4.89846	1.1444999999999999	-0.6103999999999999	3283673.0	1776544957.739801	0.0	1.0	-1.0	-1.0	-1.0	-1.0	-1.0	-1.0	-1.0	-1.0	0.0	marker	peace	Peace	24	0418
-68350.77	-54876.24	-104598.495	-18486.315	0.0	0.0	0.0	0.0	0.0	0.0	0.0	0.0	0.0	0.0	0.0	0.0	0.0	0.0	145.79310344827584	0.0	0.05212389	-0.068542305	1.016537925	4.89846	1.1444999999999999	-0.6103999999999999	3283674.0	1776544957.739807	0.0	1.0	-1.0	-1.0	-1.0	-1.0	-1.0	-1.0	-1.0	-1.0	0.0	marker	peace	Peace	24	0418
-68266.845	-54882.54	-104541.705	-18428.399999999998	0.0	0.0	0.0	0.0	0.0	0.0	0.0	0.0	0.0	0.0	0.0	0.0	0.0	0.0	145.79310344827584	0.0	0.05212389	-0.068542305	1.016537925	4.89846	1.1444999999999999	-0.6103999999999999	3283675.0	1776544957.743962	0.0	1.0	-1.0	-1.0	-1.0	-1.0	-1.0	-1.0	-1.0	-1.0	0.0	marker	peace	Peace	24	0418
-68226.48	-54870.525	-104491.17	-18357.66	0.0	0.0	0.0	0.0	0.0	0.0	0.0	0.0	0.0	0.0	0.0	0.0	0.0	0.0	145.79310344827584	0.0	0.05212389	-0.068542305	1.016537925	4.89846	1.1444999999999999	-0.6103999999999999	3283676.0	1776544957.743968	0.0	1.0	-1.0	-1.0	-1.0	-1.0	-1.0	-1.0	-1.0	-1.0	0.0	marker	peace	Peace	24	0418
-68303.16	-54865.034999999996	-104574.015	-18461.969999999998	0.0	0.0	0.0	0.0	0.0	0.0	0.0	0.0	0.0	0.0	0.0	0.0	0.0	0.0	145.79310344827584	0.0	0.052917345	-0.071227845	1.019101395	4.97476	0.73248	-0.74774	3283677.0	1776544957.748033	0.0	1.0	-1.0	-1.0	-1.0	-1.0	-1.0	-1.0	-1.0	-1.0	0.0	marker	peace	Peace	24	0418
-68346.855	-54868.229999999996	-104605.33499999999	-18512.01	0.0	0.0	0.0	0.0	0.0	0.0	0.0	0.0	0.0	0.0	0.0	0.0	0.0	0.0	145.79310344827584	0.0	0.052917345	-0.071227845	1.019101395	4.97476	0.73248	-0.74774	3283678.0	1776544957.748039	0.0	1.0	-1.0	-1.0	-1.0	-1.0	-1.0	-1.0	-1.0	-1.0	0.0	marker	peace	Peace	24	0418
-68344.065	-54860.49	-104595.885	-18496.079999999998	0.0	0.0	0.0	0.0	0.0	0.0	0.0	0.0	0.0	0.0	0.0	0.0	0.0	0.0	145.79310344827584	0.0	0.052917345	-0.071227845	1.019101395	4.97476	0.73248	-0.74774	3283679.0	1776544957.755957	0.0	1.0	-1.0	-1.0	-1.0	-1.0	-1.0	-1.0	-1.0	-1.0	0.0	marker	peace	Peace	24	0418
-68305.59	-54855.494999999995	-104597.955	-18486.495	0.0	0.0	0.0	0.0	0.0	0.0	0.0	0.0	0.0	0.0	0.0	0.0	0.0	0.0	145.79310344827584	0.0	0.052917345	-0.071227845	1.019101395	4.97476	0.73248	-0.74774	3283680.0	1776544957.755963	0.0	1.0	-1.0	-1.0	-1.0	-1.0	-1.0	-1.0	-1.0	-1.0	0.0	marker	peace	Peace	24	0418
-68260.59	-54860.985	-104547.51	-18432.54	0.0	0.0	0.0	0.0	0.0	0.0	0.0	0.0	0.0	0.0	0.0	0.0	0.0	0.0	145.79310344827584	0.0	0.052917345	-0.071227845	1.019101395	4.97476	0.73248	-0.74774	3283681.0	1776544957.75597	0.0	1.0	-1.0	-1.0	-1.0	-1.0	-1.0	-1.0	-1.0	-1.0	0.0	marker	peace	Peace	24	0418
-68322.555	-54863.46	-104579.64	-18457.469999999998	0.0	0.0	0.0	0.0	0.0	0.0	0.0	0.0	0.0	0.0	0.0	0.0	0.0	0.0	145.79310344827584	0.0	0.052917345	-0.071227845	1.019101395	4.97476	0.73248	-0.74774	3283682.0	1776544957.755974	0.0	1.0	-1.0	-1.0	-1.0	-1.0	-1.0	-1.0	-1.0	-1.0	0.0	marker	peace	Peace	24	0418
-68372.91	-54860.67	-104607.72	-18484.469999999998	0.0	0.0	0.0	0.0	0.0	0.0	0.0	0.0	0.0	0.0	0.0	0.0	0.0	0.0	145.79310344827584	0.0	0.052917345	-0.071227845	1.019101395	4.97476	0.73248	-0.74774	3283683.0	1776544957.760062	0.0	1.0	-1.0	-1.0	-1.0	-1.0	-1.0	-1.0	-1.0	-1.0	0.0	marker	peace	Peace	24	0418
-68372.01	-54854.235	-104623.01999999999	-18503.864999999998	0.0	0.0	0.0	0.0	0.0	0.0	0.0	0.0	0.0	0.0	0.0	0.0	0.0	0.0	145.79310344827584	0.0	0.052917345	-0.071227845	1.019101395	4.97476	0.73248	-0.74774	3283684.0	1776544957.760067	0.0	1.0	-1.0	-1.0	-1.0	-1.0	-1.0	-1.0	-1.0	-1.0	0.0	marker	peace	Peace	24	0418
-68312.34	-54843.165	-104550.705	-18465.704999999998	0.0	0.0	0.0	0.0	0.0	0.0	0.0	0.0	0.0	0.0	0.0	0.0	0.0	0.0	145.79310344827584	0.0	0.052917345	-0.071227845	1.019101395	4.97476	0.73248	-0.74774	3283685.0	1776544957.764014	0.0	1.0	-1.0	-1.0	-1.0	-1.0	-1.0	-1.0	-1.0	-1.0	0.0	marker	peace	Peace	24	0418
-68276.655	-54834.119999999995	-104529.105	-18434.88	0.0	0.0	0.0	0.0	0.0	0.0	0.0	0.0	0.0	0.0	0.0	0.0	0.0	0.0	145.79310344827584	0.0	0.052917345	-0.071227845	1.019101395	4.97476	0.73248	-0.74774	3283686.0	1776544957.764019	0.0	1.0	-1.0	-1.0	-1.0	-1.0	-1.0	-1.0	-1.0	-1.0	0.0	marker	peace	Peace	24	0418
-68314.31999999999	-54837.0	-104609.745	-18466.605	0.0	0.0	0.0	0.0	0.0	0.0	0.0	0.0	0.0	0.0	0.0	0.0	0.0	0.0	145.79310344827584	0.0	0.050475945	-0.07275372000000001	1.019467605	4.63904	0.01526	-1.6633399999999998	3283687.0	1776544957.768122	0.0	1.0	-1.0	-1.0	-1.0	-1.0	-1.0	-1.0	-1.0	-1.0	0.0	marker	peace	Peace	24	0418
-68300.325	-54834.075	-104570.90999999999	-18455.67	0.0	0.0	0.0	0.0	0.0	0.0	0.0	0.0	0.0	0.0	0.0	0.0	0.0	0.0	145.79310344827584	0.0	0.050475945	-0.07275372000000001	1.019467605	4.63904	0.01526	-1.6633399999999998	3283688.0	1776544957.768127	0.0	1.0	-1.0	-1.0	-1.0	-1.0	-1.0	-1.0	-1.0	-1.0	0.0	marker	peace	Peace	24	0418
-68277.87	-54827.009999999995	-104530.05	-18447.165	0.0	0.0	0.0	0.0	0.0	0.0	0.0	0.0	0.0	0.0	0.0	0.0	0.0	0.0	145.79310344827584	0.0	0.050475945	-0.07275372000000001	1.019467605	4.63904	0.01526	-1.6633399999999998	3283689.0	1776544957.772112	0.0	1.0	-1.0	-1.0	-1.0	-1.0	-1.0	-1.0	-1.0	-1.0	0.0	marker	peace	Peace	24	0418
-68233.72499999999	-54818.28	-104528.97	-18437.579999999998	0.0	0.0	0.0	0.0	0.0	0.0	0.0	0.0	0.0	0.0	0.0	0.0	0.0	0.0	145.79310344827584	0.0	0.050475945	-0.07275372000000001	1.019467605	4.63904	0.01526	-1.6633399999999998	3283690.0	1776544957.772117	0.0	1.0	-1.0	-1.0	-1.0	-1.0	-1.0	-1.0	-1.0	-1.0	0.0	marker	peace	Peace	24	0418
-68282.415	-54815.805	-104565.87	-18444.059999999998	0.0	0.0	0.0	0.0	0.0	0.0	0.0	0.0	0.0	0.0	0.0	0.0	0.0	0.0	145.79310344827584	0.0	0.050475945	-0.07275372000000001	1.019467605	4.63904	0.01526	-1.6633399999999998	3283691.0	1776544957.778523	0.0	1.0	-1.0	-1.0	-1.0	-1.0	-1.0	-1.0	-1.0	-1.0	0.0	marker	peace	Peace	24	0418
-68371.245	-54833.22	-104577.65999999999	-18479.16	0.0	0.0	0.0	0.0	0.0	0.0	0.0	0.0	0.0	0.0	0.0	0.0	0.0	0.0	145.79310344827584	0.0	0.050475945	-0.07275372000000001	1.019467605	4.63904	0.01526	-1.6633399999999998	3283692.0	1776544957.778528	0.0	1.0	-1.0	-1.0	-1.0	-1.0	-1.0	-1.0	-1.0	-1.0	0.0	marker	peace	Peace	24	0418
-68331.19499999999	-54837.314999999995	-104561.325	-18478.305	0.0	0.0	0.0	0.0	0.0	0.0	0.0	0.0	0.0	0.0	0.0	0.0	0.0	0.0	145.79310344827584	0.0	0.050475945	-0.07275372000000001	1.019467605	4.63904	0.01526	-1.6633399999999998	3283693.0	1776544957.781765	0.0	1.0	-1.0	-1.0	-1.0	-1.0	-1.0	-1.0	-1.0	-1.0	0.0	marker	peace	Peace	24	0418
-68333.265	-54837.36	-104611.095	-18494.145	0.0	0.0	0.0	0.0	0.0	0.0	0.0	0.0	0.0	0.0	0.0	0.0	0.0	0.0	145.79310344827584	0.0	0.050475945	-0.07275372000000001	1.019467605	4.63904	0.01526	-1.6633399999999998	3283694.0	1776544957.78177	0.0	1.0	-1.0	-1.0	-1.0	-1.0	-1.0	-1.0	-1.0	-1.0	0.0	marker	peace	Peace	24	0418
-68277.555	-54821.34	-104568.75	-18426.42	0.0	0.0	0.0	0.0	0.0	0.0	0.0	0.0	0.0	0.0	0.0	0.0	0.0	0.0	145.79310344827584	0.0	0.050475945	-0.07275372000000001	1.019467605	4.63904	0.01526	-1.6633399999999998	3283695.0	1776544957.784736	0.0	1.0	-1.0	-1.0	-1.0	-1.0	-1.0	-1.0	-1.0	-1.0	0.0	marker	peace	Peace	24	0418
-68314.545	-54816.975	-104618.745	-18470.114999999998	0.0	0.0	0.0	0.0	0.0	0.0	0.0	0.0	0.0	0.0	0.0	0.0	0.0	0.0	145.79310344827584	0.0	0.050475945	-0.07275372000000001	1.019467605	4.63904	0.01526	-1.6633399999999998	3283696.0	1776544957.784741	0.0	1.0	-1.0	-1.0	-1.0	-1.0	-1.0	-1.0	-1.0	-1.0	0.0	marker	peace	Peace	24	0418
-68351.58	-54814.365	-104622.93	-18504.63	0.0	0.0	0.0	0.0	0.0	0.0	0.0	0.0	0.0	0.0	0.0	0.0	0.0	0.0	145.79310344827584	0.0	0.052062855	-0.07543926000000001	1.016537925	5.15788	0.07629999999999999	-2.7468	3283697.0	1776544957.787973	0.0	1.0	-1.0	-1.0	-1.0	-1.0	-1.0	-1.0	-1.0	-1.0	0.0	marker	peace	Peace	24	0418
-68298.61499999999	-54808.29	-104529.555	-18426.059999999998	0.0	0.0	0.0	0.0	0.0	0.0	0.0	0.0	0.0	0.0	0.0	0.0	0.0	0.0	145.79310344827584	0.0	0.052062855	-0.07543926000000001	1.016537925	5.15788	0.07629999999999999	-2.7468	3283698.0	1776544957.78798	0.0	1.0	-1.0	-1.0	-1.0	-1.0	-1.0	-1.0	-1.0	-1.0	0.0	marker	peace	Peace	24	0418
-68270.175	-54818.775	-104528.565	-18452.07	0.0	0.0	0.0	0.0	0.0	0.0	0.0	0.0	0.0	0.0	0.0	0.0	0.0	0.0	145.79310344827584	0.0	0.052062855	-0.07543926000000001	1.016537925	5.15788	0.07629999999999999	-2.7468	3283699.0	1776544957.792101	0.0	1.0	-1.0	-1.0	-1.0	-1.0	-1.0	-1.0	-1.0	-1.0	0.0	marker	peace	Peace	24	0418
-68291.955	-54819.63	-104535.98999999999	-18472.184999999998	0.0	0.0	0.0	0.0	0.0	0.0	0.0	0.0	0.0	0.0	0.0	0.0	0.0	0.0	145.79310344827584	0.0	0.052062855	-0.07543926000000001	1.016537925	5.15788	0.07629999999999999	-2.7468	3283700.0	1776544957.792106	0.0	1.0	-1.0	-1.0	-1.0	-1.0	-1.0	-1.0	-1.0	-1.0	0.0	marker	peace	Peace	24	0418
-68335.065	-54809.954999999994	-104560.29	-18444.69	0.0	0.0	0.0	0.0	0.0	0.0	0.0	0.0	0.0	0.0	0.0	0.0	0.0	0.0	145.79310344827584	0.0	0.052062855	-0.07543926000000001	1.016537925	5.15788	0.07629999999999999	-2.7468	3283701.0	1776544957.796206	0.0	1.0	-1.0	-1.0	-1.0	-1.0	-1.0	-1.0	-1.0	-1.0	0.0	marker	peace	Peace	24	0418
-68330.745	-54806.759999999995	-104637.015	-18481.364999999998	0.0	0.0	0.0	0.0	0.0	0.0	0.0	0.0	0.0	0.0	0.0	0.0	0.0	0.0	145.79310344827584	0.0	0.052062855	-0.07543926000000001	1.016537925	5.15788	0.07629999999999999	-2.7468	3283702.0	1776544957.79621	0.0	1.0	-1.0	-1.0	-1.0	-1.0	-1.0	-1.0	-1.0	-1.0	0.0	marker	peace	Peace	24	0418
-68321.79	-54811.89	-104630.08499999999	-18493.155	0.0	0.0	0.0	0.0	0.0	0.0	0.0	0.0	0.0	0.0	0.0	0.0	0.0	0.0	145.79310344827584	0.0	0.052062855	-0.07543926000000001	1.016537925	5.15788	0.07629999999999999	-2.7468	3283703.0	1776544957.800205	0.0	1.0	-1.0	-1.0	-1.0	-1.0	-1.0	-1.0	-1.0	-1.0	0.0	marker	peace	Peace	24	0418
-68327.73	-54809.954999999994	-104606.685	-18487.755	0.0	0.0	0.0	0.0	0.0	0.0	0.0	0.0	0.0	0.0	0.0	0.0	0.0	0.0	145.79310344827584	0.0	0.052062855	-0.07543926000000001	1.016537925	5.15788	0.07629999999999999	-2.7468	3283704.0	1776544957.800234	0.0	1.0	-1.0	-1.0	-1.0	-1.0	-1.0	-1.0	-1.0	-1.0	0.0	marker	peace	Peace	24	0418
-68294.385	-54813.465	-104562.315	-18443.79	0.0	0.0	0.0	0.0	0.0	0.0	0.0	0.0	0.0	0.0	0.0	0.0	0.0	0.0	145.79310344827584	0.0	0.052062855	-0.07543926000000001	1.016537925	5.15788	0.07629999999999999	-2.7468	3283705.0	1776544957.804133	0.0	1.0	-1.0	-1.0	-1.0	-1.0	-1.0	-1.0	-1.0	-1.0	0.0	marker	peace	Peace	24	0418
-68340.825	-54836.235	-104613.03	-18489.87	0.0	0.0	0.0	0.0	0.0	0.0	0.0	0.0	0.0	0.0	0.0	0.0	0.0	0.0	145.79310344827584	0.0	0.052062855	-0.07543926000000001	1.016537925	5.15788	0.07629999999999999	-2.7468	3283706.0	1776544957.804137	0.0	1.0	-1.0	-1.0	-1.0	-1.0	-1.0	-1.0	-1.0	-1.0	0.0	marker	peace	Peace	24	0418
-68314.005	-54850.229999999996	-104587.78499999999	-18478.665	0.0	0.0	0.0	0.0	0.0	0.0	0.0	0.0	0.0	0.0	0.0	0.0	0.0	0.0	145.79310344827584	0.0	0.055847025	-0.070495425	1.014218595	4.8831999999999995	0.9613799999999999	-2.4263399999999997	3283707.0	1776544957.808092	0.0	1.0	-1.0	-1.0	-1.0	-1.0	-1.0	-1.0	-1.0	-1.0	0.0	marker	peace	Peace	24	0418
-68267.52	-54859.365	-104519.43	-18408.465	0.0	0.0	0.0	0.0	0.0	0.0	0.0	0.0	0.0	0.0	0.0	0.0	0.0	0.0	145.79310344827584	0.0	0.055847025	-0.070495425	1.014218595	4.8831999999999995	0.9613799999999999	-2.4263399999999997	3283708.0	1776544957.808096	0.0	1.0	-1.0	-1.0	-1.0	-1.0	-1.0	-1.0	-1.0	-1.0	0.0	marker	peace	Peace	24	0418
-68217.705	-54869.354999999996	-104488.83	-18392.355	0.0	0.0	0.0	0.0	0.0	0.0	0.0	0.0	0.0	0.0	0.0	0.0	0.0	0.0	145.79310344827584	0.0	0.055847025	-0.070495425	1.014218595	4.8831999999999995	0.9613799999999999	-2.4263399999999997	3283709.0	1776544957.812093	0.0	1.0	-1.0	-1.0	-1.0	-1.0	-1.0	-1.0	-1.0	-1.0	0.0	marker	peace	Peace	24	0418
-68197.185	-54866.61	-104492.47499999999	-18409.77	0.0	0.0	0.0	0.0	0.0	0.0	0.0	0.0	0.0	0.0	0.0	0.0	0.0	0.0	145.79310344827584	0.0	0.055847025	-0.070495425	1.014218595	4.8831999999999995	0.9613799999999999	-2.4263399999999997	3283710.0	1776544957.812098	0.0	1.0	-1.0	-1.0	-1.0	-1.0	-1.0	-1.0	-1.0	-1.0	0.0	marker	peace	Peace	24	0418
-68348.06999999999	-54865.845	-104606.19	-18482.13	0.0	0.0	0.0	0.0	0.0	0.0	0.0	0.0	0.0	0.0	0.0	0.0	0.0	0.0	145.79310344827584	0.0	0.055847025	-0.070495425	1.014218595	4.8831999999999995	0.9613799999999999	-2.4263399999999997	3283711.0	1776544957.819918	0.0	1.0	-1.0	-1.0	-1.0	-1.0	-1.0	-1.0	-1.0	-1.0	0.0	marker	peace	Peace	24	0418
-68339.52	-54857.204999999994	-104612.84999999999	-18472.95	0.0	0.0	0.0	0.0	0.0	0.0	0.0	0.0	0.0	0.0	0.0	0.0	0.0	0.0	145.79310344827584	0.0	0.055847025	-0.070495425	1.014218595	4.8831999999999995	0.9613799999999999	-2.4263399999999997	3283712.0	1776544957.819923	0.0	1.0	-1.0	-1.0	-1.0	-1.0	-1.0	-1.0	-1.0	-1.0	0.0	marker	peace	Peace	24	0418
-68307.39	-54854.775	-104583.105	-18449.235	0.0	0.0	0.0	0.0	0.0	0.0	0.0	0.0	0.0	0.0	0.0	0.0	0.0	0.0	145.79310344827584	0.0	0.055847025	-0.070495425	1.014218595	4.8831999999999995	0.9613799999999999	-2.4263399999999997	3283713.0	1776544957.819928	0.0	1.0	-1.0	-1.0	-1.0	-1.0	-1.0	-1.0	-1.0	-1.0	0.0	marker	peace	Peace	24	0418
-68344.605	-54863.82	-104609.43	-18489.105	0.0	0.0	0.0	0.0	0.0	0.0	0.0	0.0	0.0	0.0	0.0	0.0	0.0	0.0	145.79310344827584	0.0	0.055847025	-0.070495425	1.014218595	4.8831999999999995	0.9613799999999999	-2.4263399999999997	3283714.0	1776544957.819931	0.0	1.0	-1.0	-1.0	-1.0	-1.0	-1.0	-1.0	-1.0	-1.0	0.0	marker	peace	Peace	24	0418
-68339.205	-54872.505	-104606.415	-18496.8	0.0	0.0	0.0	0.0	0.0	0.0	0.0	0.0	0.0	0.0	0.0	0.0	0.0	0.0	145.79310344827584	0.0	0.055847025	-0.070495425	1.014218595	4.8831999999999995	0.9613799999999999	-2.4263399999999997	3283715.0	1776544957.82412	0.0	1.0	-1.0	-1.0	-1.0	-1.0	-1.0	-1.0	-1.0	-1.0	0.0	marker	peace	Peace	24	0418
-68292.045	-54877.049999999996	-104569.78499999999	-18471.015	0.0	0.0	0.0	0.0	0.0	0.0	0.0	0.0	0.0	0.0	0.0	0.0	0.0	0.0	145.79310344827584	0.0	0.055847025	-0.070495425	1.014218595	4.8831999999999995	0.9613799999999999	-2.4263399999999997	3283716.0	1776544957.824125	0.0	1.0	-1.0	-1.0	-1.0	-1.0	-1.0	-1.0	-1.0	-1.0	0.0	marker	peace	Peace	24	0418
-68272.65	-54874.755	-104525.64	-18415.44	0.0	0.0	0.0	0.0	0.0	0.0	0.0	0.0	0.0	0.0	0.0	0.0	0.0	0.0	145.79310344827584	0.0	0.0524901	-0.062682945	1.011777195	2.6857599999999997	1.00716	-0.94612	3283717.0	1776544957.82839	0.0	1.0	-1.0	-1.0	-1.0	-1.0	-1.0	-1.0	-1.0	-1.0	0.0	marker	peace	Peace	24	0418
-68304.375	-54872.595	-104566.05	-18446.895	0.0	0.0	0.0	0.0	0.0	0.0	0.0	0.0	0.0	0.0	0.0	0.0	0.0	0.0	145.79310344827584	0.0	0.0524901	-0.062682945	1.011777195	2.6857599999999997	1.00716	-0.94612	3283718.0	1776544957.828394	0.0	1.0	-1.0	-1.0	-1.0	-1.0	-1.0	-1.0	-1.0	-1.0	0.0	marker	peace	Peace	24	0418
-68385.645	-54876.78	-104656.00499999999	-18541.215	0.0	0.0	0.0	0.0	0.0	0.0	0.0	0.0	0.0	0.0	0.0	0.0	0.0	0.0	145.79310344827584	0.0	0.0524901	-0.062682945	1.011777195	2.6857599999999997	1.00716	-0.94612	3283719.0	1776544957.832249	0.0	1.0	-1.0	-1.0	-1.0	-1.0	-1.0	-1.0	-1.0	-1.0	0.0	marker	peace	Peace	24	0418
-68366.655	-54873.27	-104644.575	-18534.42	0.0	0.0	0.0	0.0	0.0	0.0	0.0	0.0	0.0	0.0	0.0	0.0	0.0	0.0	145.79310344827584	0.0	0.0524901	-0.062682945	1.011777195	2.6857599999999997	1.00716	-0.94612	3283720.0	1776544957.832263	0.0	1.0	-1.0	-1.0	-1.0	-1.0	-1.0	-1.0	-1.0	-1.0	0.0	marker	peace	Peace	24	0418
-68273.45999999999	-54864.854999999996	-104562.81	-18468.405	0.0	0.0	0.0	0.0	0.0	0.0	0.0	0.0	0.0	0.0	0.0	0.0	0.0	0.0	145.79310344827584	0.0	0.0524901	-0.062682945	1.011777195	2.6857599999999997	1.00716	-0.94612	3283721.0	1776544957.83636	0.0	1.0	-1.0	-1.0	-1.0	-1.0	-1.0	-1.0	-1.0	-1.0	0.0	marker	peace	Peace	24	0418
-68295.42	-54855.134999999995	-104581.39499999999	-18485.954999999998	0.0	0.0	0.0	0.0	0.0	0.0	0.0	0.0	0.0	0.0	0.0	0.0	0.0	0.0	145.79310344827584	0.0	0.0524901	-0.062682945	1.011777195	2.6857599999999997	1.00716	-0.94612	3283722.0	1776544957.836375	0.0	1.0	-1.0	-1.0	-1.0	-1.0	-1.0	-1.0	-1.0	-1.0	0.0	marker	peace	Peace	24	0418
-68348.565	-54851.13	-104602.68	-18481.454999999998	0.0	0.0	0.0	0.0	0.0	0.0	0.0	0.0	0.0	0.0	0.0	0.0	0.0	0.0	145.79310344827584	0.0	0.0524901	-0.062682945	1.011777195	2.6857599999999997	1.00716	-0.94612	3283723.0	1776544957.84029	0.0	1.0	-1.0	-1.0	-1.0	-1.0	-1.0	-1.0	-1.0	-1.0	0.0	marker	peace	Peace	24	0418
-68364.495	-54856.305	-104622.12	-18504.945	0.0	0.0	0.0	0.0	0.0	0.0	0.0	0.0	0.0	0.0	0.0	0.0	0.0	0.0	145.79310344827584	0.0	0.0524901	-0.062682945	1.011777195	2.6857599999999997	1.00716	-0.94612	3283724.0	1776544957.840304	0.0	1.0	-1.0	-1.0	-1.0	-1.0	-1.0	-1.0	-1.0	-1.0	0.0	marker	peace	Peace	24	0418
-68237.73	-54852.704999999994	-104517.765	-18415.98	0.0	0.0	0.0	0.0	0.0	0.0	0.0	0.0	0.0	0.0	0.0	0.0	0.0	0.0	145.79310344827584	0.0	0.0524901	-0.062682945	1.011777195	2.6857599999999997	1.00716	-0.94612	3283725.0	1776544957.844323	0.0	1.0	-1.0	-1.0	-1.0	-1.0	-1.0	-1.0	-1.0	-1.0	0.0	marker	peace	Peace	24	0418
-68090.67	-54844.424999999996	-104381.37	-18281.745	0.0	0.0	0.0	0.0	0.0	0.0	0.0	0.0	0.0	0.0	0.0	0.0	0.0	0.0	145.79310344827584	0.0	0.0524901	-0.062682945	1.011777195	2.6857599999999997	1.00716	-0.94612	3283726.0	1776544957.844337	0.0	1.0	-1.0	-1.0	-1.0	-1.0	-1.0	-1.0	-1.0	-1.0	0.0	marker	peace	Peace	24	0418
-68249.88	-54851.805	-104529.64499999999	-18435.015	0.0	0.0	0.0	0.0	0.0	0.0	0.0	0.0	0.0	0.0	0.0	0.0	0.0	0.0	145.79310344827584	0.0	0.049987665	-0.061706385	1.013730315	2.73154	0.6409199999999999	-1.12924	3283727.0	1776544957.848539	0.0	1.0	-1.0	-1.0	-1.0	-1.0	-1.0	-1.0	-1.0	-1.0	0.0	marker	peace	Peace	24	0418
-68412.465	-54854.729999999996	-104648.58	-18529.875	0.0	0.0	0.0	0.0	0.0	0.0	0.0	0.0	0.0	0.0	0.0	0.0	0.0	0.0	145.79310344827584	0.0	0.049987665	-0.061706385	1.013730315	2.73154	0.6409199999999999	-1.12924	3283728.0	1776544957.848554	0.0	1.0	-1.0	-1.0	-1.0	-1.0	-1.0	-1.0	-1.0	-1.0	0.0	marker	peace	Peace	24	0418
-68389.155	-54853.29	-104632.37999999999	-18495.18	0.0	0.0	0.0	0.0	0.0	0.0	0.0	0.0	0.0	0.0	0.0	0.0	0.0	0.0	145.79310344827584	0.0	0.049987665	-0.061706385	1.013730315	2.73154	0.6409199999999999	-1.12924	3283729.0	1776544957.852364	0.0	1.0	-1.0	-1.0	-1.0	-1.0	-1.0	-1.0	-1.0	-1.0	0.0	marker	peace	Peace	24	0418
-68305.275	-54844.829999999994	-104590.53	-18480.87	0.0	0.0	0.0	0.0	0.0	0.0	0.0	0.0	0.0	0.0	0.0	0.0	0.0	0.0	145.79310344827584	0.0	0.049987665	-0.061706385	1.013730315	2.73154	0.6409199999999999	-1.12924	3283730.0	1776544957.852378	0.0	1.0	-1.0	-1.0	-1.0	-1.0	-1.0	-1.0	-1.0	-1.0	0.0	marker	peace	Peace	24	0418
-68333.44499999999	-54847.619999999995	-104599.89	-18489.645	0.0	0.0	0.0	0.0	0.0	0.0	0.0	0.0	0.0	0.0	0.0	0.0	0.0	0.0	145.79310344827584	0.0	0.049987665	-0.061706385	1.013730315	2.73154	0.6409199999999999	-1.12924	3283731.0	1776544957.856369	0.0	1.0	-1.0	-1.0	-1.0	-1.0	-1.0	-1.0	-1.0	-1.0	0.0	marker	peace	Peace	24	0418
-68379.075	-54860.895	-104635.53	-18533.43	0.0	0.0	0.0	0.0	0.0	0.0	0.0	0.0	0.0	0.0	0.0	0.0	0.0	0.0	145.79310344827584	0.0	0.049987665	-0.061706385	1.013730315	2.73154	0.6409199999999999	-1.12924	3283732.0	1776544957.856372	0.0	1.0	-1.0	-1.0	-1.0	-1.0	-1.0	-1.0	-1.0	-1.0	0.0	marker	peace	Peace	24	0418
-68281.92	-54866.295	-104555.43	-18464.985	0.0	0.0	0.0	0.0	0.0	0.0	0.0	0.0	0.0	0.0	0.0	0.0	0.0	0.0	145.79310344827584	0.0	0.049987665	-0.061706385	1.013730315	2.73154	0.6409199999999999	-1.12924	3283733.0	1776544957.863627	0.0	1.0	-1.0	-1.0	-1.0	-1.0	-1.0	-1.0	-1.0	-1.0	0.0	marker	peace	Peace	24	0418
-68215.905	-54865.53	-104519.205	-18413.055	0.0	0.0	0.0	0.0	0.0	0.0	0.0	0.0	0.0	0.0	0.0	0.0	0.0	0.0	145.79310344827584	0.0	0.049987665	-0.061706385	1.013730315	2.73154	0.6409199999999999	-1.12924	3283734.0	1776544957.863641	0.0	1.0	-1.0	-1.0	-1.0	-1.0	-1.0	-1.0	-1.0	-1.0	0.0	marker	peace	Peace	24	0418
-68304.06	-54872.729999999996	-104572.8	-18450.135	0.0	0.0	0.0	0.0	0.0	0.0	0.0	0.0	0.0	0.0	0.0	0.0	0.0	0.0	145.79310344827584	0.0	0.049987665	-0.061706385	1.013730315	2.73154	0.6409199999999999	-1.12924	3283735.0	1776544957.864307	0.0	1.0	-1.0	-1.0	-1.0	-1.0	-1.0	-1.0	-1.0	-1.0	0.0	marker	peace	Peace	24	0418
-68355.855	-54868.545	-104600.745	-18481.005	0.0	0.0	0.0	0.0	0.0	0.0	0.0	0.0	0.0	0.0	0.0	0.0	0.0	0.0	145.79310344827584	0.0	0.049987665	-0.061706385	1.013730315	2.73154	0.6409199999999999	-1.12924	3283736.0	1776544957.864321	0.0	1.0	-1.0	-1.0	-1.0	-1.0	-1.0	-1.0	-1.0	-1.0	0.0	marker	peace	Peace	24	0418
-68238.36	-54864.27	-104500.34999999999	-18405.989999999998	0.0	0.0	0.0	0.0	0.0	0.0	0.0	0.0	0.0	0.0	0.0	0.0	0.0	0.0	145.79310344827584	0.0	0.05529771	-0.05993637	1.015683435	2.8078399999999997	0.57988	-0.74774	3283737.0	1776544957.870122	0.0	1.0	-1.0	-1.0	-1.0	-1.0	-1.0	-1.0	-1.0	-1.0	0.0	marker	peace	Peace	24	0418
-68310.22499999999	-54865.89	-104535.54	-18445.995	0.0	0.0	0.0	0.0	0.0	0.0	0.0	0.0	0.0	0.0	0.0	0.0	0.0	0.0	145.79310344827584	0.0	0.05529771	-0.05993637	1.015683435	2.8078399999999997	0.57988	-0.74774	3283738.0	1776544957.870136	0.0	1.0	-1.0	-1.0	-1.0	-1.0	-1.0	-1.0	-1.0	-1.0	0.0	marker	peace	Peace	24	0418
-68335.38	-54876.869999999995	-104573.47499999999	-18478.98	0.0	0.0	0.0	0.0	0.0	0.0	0.0	0.0	0.0	0.0	0.0	0.0	0.0	0.0	145.79310344827584	0.0	0.05529771	-0.05993637	1.015683435	2.8078399999999997	0.57988	-0.74774	3283739.0	1776544957.872394	0.0	1.0	-1.0	-1.0	-1.0	-1.0	-1.0	-1.0	-1.0	-1.0	0.0	marker	peace	Peace	24	0418
-68285.745	-54886.14	-104542.875	-18449.505	0.0	0.0	0.0	0.0	0.0	0.0	0.0	0.0	0.0	0.0	0.0	0.0	0.0	0.0	145.79310344827584	0.0	0.05529771	-0.05993637	1.015683435	2.8078399999999997	0.57988	-0.74774	3283740.0	1776544957.872407	0.0	1.0	-1.0	-1.0	-1.0	-1.0	-1.0	-1.0	-1.0	-1.0	0.0	marker	peace	Peace	24	0418
-68347.98	-54901.17	-104601.33	-18472.59	0.0	0.0	0.0	0.0	0.0	0.0	0.0	0.0	0.0	0.0	0.0	0.0	0.0	0.0	145.79310344827584	0.0	0.05529771	-0.05993637	1.015683435	2.8078399999999997	0.57988	-0.74774	3283741.0	1776544957.883645	0.0	1.0	-1.0	-1.0	-1.0	-1.0	-1.0	-1.0	-1.0	-1.0	0.0	marker	peace	Peace	24	0418
-68342.04	-54902.52	-104630.44499999999	-18503.235	0.0	0.0	0.0	0.0	0.0	0.0	0.0	0.0	0.0	0.0	0.0	0.0	0.0	0.0	145.79310344827584	0.0	0.05529771	-0.05993637	1.015683435	2.8078399999999997	0.57988	-0.74774	3283742.0	1776544957.883659	0.0	1.0	-1.0	-1.0	-1.0	-1.0	-1.0	-1.0	-1.0	-1.0	0.0	marker	peace	Peace	24	0418
-68274.495	-54879.615	-104592.465	-18479.88	0.0	0.0	0.0	0.0	0.0	0.0	0.0	0.0	0.0	0.0	0.0	0.0	0.0	0.0	145.79310344827584	0.0	0.05529771	-0.05993637	1.015683435	2.8078399999999997	0.57988	-0.74774	3283743.0	1776544957.886515	0.0	1.0	-1.0	-1.0	-1.0	-1.0	-1.0	-1.0	-1.0	-1.0	0.0	marker	peace	Peace	24	0418
-68231.79	-54864.674999999996	-104517.18	-18412.11	0.0	0.0	0.0	0.0	0.0	0.0	0.0	0.0	0.0	0.0	0.0	0.0	0.0	0.0	145.79310344827584	0.0	0.05529771	-0.05993637	1.015683435	2.8078399999999997	0.57988	-0.74774	3283744.0	1776544957.886529	0.0	1.0	-1.0	-1.0	-1.0	-1.0	-1.0	-1.0	-1.0	-1.0	0.0	marker	peace	Peace	24	0418
-68279.31	-54857.43	-104542.47	-18418.05	0.0	0.0	0.0	0.0	0.0	0.0	0.0	0.0	0.0	0.0	0.0	0.0	0.0	0.0	145.79310344827584	0.0	0.05529771	-0.05993637	1.015683435	2.8078399999999997	0.57988	-0.74774	3283745.0	1776544957.886551	0.0	1.0	-1.0	-1.0	-1.0	-1.0	-1.0	-1.0	-1.0	-1.0	0.0	marker	peace	Peace	24	0418
-68329.575	-54855.854999999996	-104632.73999999999	-18482.85	0.0	0.0	0.0	0.0	0.0	0.0	0.0	0.0	0.0	0.0	0.0	0.0	0.0	0.0	145.79310344827584	0.0	0.05529771	-0.05993637	1.015683435	2.8078399999999997	0.57988	-0.74774	3283746.0	1776544957.88656	0.0	1.0	-1.0	-1.0	-1.0	-1.0	-1.0	-1.0	-1.0	-1.0	0.0	marker	peace	Peace	24	0418
-68258.565	-54853.02	-104572.845	-18437.94	0.0	0.0	0.0	0.0	0.0	0.0	0.0	0.0	0.0	0.0	0.0	0.0	0.0	0.0	145.79310344827584	0.0	0.056701515	-0.056945655	1.014584805	2.0448399999999998	0.59514	0.19838	3283747.0	1776544957.891843	0.0	1.0	-1.0	-1.0	-1.0	-1.0	-1.0	-1.0	-1.0	-1.0	0.0	marker	peace	Peace	24	0418
-68306.355	-54857.88	-104570.955	-18446.94	0.0	0.0	0.0	0.0	0.0	0.0	0.0	0.0	0.0	0.0	0.0	0.0	0.0	0.0	145.79310344827584	0.0	0.056701515	-0.056945655	1.014584805	2.0448399999999998	0.59514	0.19838	3283748.0	1776544957.891857	0.0	1.0	-1.0	-1.0	-1.0	-1.0	-1.0	-1.0	-1.0	-1.0	0.0	marker	peace	Peace	24	0418
-68429.43	-54889.784999999996	-104646.51	-18534.915	0.0	0.0	0.0	0.0	0.0	0.0	0.0	0.0	0.0	0.0	0.0	0.0	0.0	0.0	145.79310344827584	0.0	0.056701515	-0.056945655	1.014584805	2.0448399999999998	0.59514	0.19838	3283749.0	1776544957.892403	0.0	1.0	-1.0	-1.0	-1.0	-1.0	-1.0	-1.0	-1.0	-1.0	0.0	marker	peace	Peace	24	0418
-68359.005	-54897.39	-104568.61499999999	-18469.665	0.0	0.0	0.0	0.0	0.0	0.0	0.0	0.0	0.0	0.0	0.0	0.0	0.0	0.0	145.79310344827584	0.0	0.056701515	-0.056945655	1.014584805	2.0448399999999998	0.59514	0.19838	3283750.0	1776544957.892407	0.0	1.0	-1.0	-1.0	-1.0	-1.0	-1.0	-1.0	-1.0	-1.0	0.0	marker	peace	Peace	24	0418
-68326.605	-54887.22	-104557.23	-18460.665	0.0	0.0	0.0	0.0	0.0	0.0	0.0	0.0	0.0	0.0	0.0	0.0	0.0	0.0	145.79310344827584	0.0	0.056701515	-0.056945655	1.014584805	2.0448399999999998	0.59514	0.19838	3283751.0	1776544957.896597	0.0	1.0	-1.0	-1.0	-1.0	-1.0	-1.0	-1.0	-1.0	-1.0	0.0	marker	peace	Peace	24	0418
-68351.76	-54878.31	-104590.98	-18499.364999999998	0.0	0.0	0.0	0.0	0.0	0.0	0.0	0.0	0.0	0.0	0.0	0.0	0.0	0.0	145.79310344827584	0.0	0.056701515	-0.056945655	1.014584805	2.0448399999999998	0.59514	0.19838	3283752.0	1776544957.896612	0.0	1.0	-1.0	-1.0	-1.0	-1.0	-1.0	-1.0	-1.0	-1.0	0.0	marker	peace	Peace	24	0418
-68349.555	-54872.865	-104596.875	-18491.265	0.0	0.0	0.0	0.0	0.0	0.0	0.0	0.0	0.0	0.0	0.0	0.0	0.0	0.0	145.79310344827584	0.0	0.056701515	-0.056945655	1.014584805	2.0448399999999998	0.59514	0.19838	3283753.0	1776544957.900591	0.0	1.0	-1.0	-1.0	-1.0	-1.0	-1.0	-1.0	-1.0	-1.0	0.0	marker	peace	Peace	24	0418
-68288.44499999999	-54871.29	-104555.925	-18439.245	0.0	0.0	0.0	0.0	0.0	0.0	0.0	0.0	0.0	0.0	0.0	0.0	0.0	0.0	145.79310344827584	0.0	0.056701515	-0.056945655	1.014584805	2.0448399999999998	0.59514	0.19838	3283754.0	1776544957.900596	0.0	1.0	-1.0	-1.0	-1.0	-1.0	-1.0	-1.0	-1.0	-1.0	0.0	marker	peace	Peace	24	0418
-68304.915	-54875.25	-104586.795	-18458.415	0.0	0.0	0.0	0.0	0.0	0.0	0.0	0.0	0.0	0.0	0.0	0.0	0.0	0.0	145.79310344827584	0.0	0.056701515	-0.056945655	1.014584805	2.0448399999999998	0.59514	0.19838	3283755.0	1776544957.904578	0.0	1.0	-1.0	-1.0	-1.0	-1.0	-1.0	-1.0	-1.0	-1.0	0.0	marker	peace	Peace	24	0418
-68374.215	-54880.29	-104658.84	-18511.29	0.0	0.0	0.0	0.0	0.0	0.0	0.0	0.0	0.0	0.0	0.0	0.0	0.0	0.0	145.79310344827584	0.0	0.056701515	-0.056945655	1.014584805	2.0448399999999998	0.59514	0.19838	3283756.0	1776544957.904592	0.0	1.0	-1.0	-1.0	-1.0	-1.0	-1.0	-1.0	-1.0	-1.0	0.0	marker	peace	Peace	24	0418
-68312.34	-54885.6	-104590.665	-18466.38	0.0	0.0	0.0	0.0	0.0	0.0	0.0	0.0	0.0	0.0	0.0	0.0	0.0	0.0	145.79310344827584	0.0	0.05627427	-0.05480943	1.01513412	0.03052	0.73248	0.39676	3283757.0	1776544957.90856	0.0	1.0	-1.0	-1.0	-1.0	-1.0	-1.0	-1.0	-1.0	-1.0	0.0	marker	peace	Peace	24	0418
-68329.305	-54888.525	-104581.39499999999	-18469.395	0.0	0.0	0.0	0.0	0.0	0.0	0.0	0.0	0.0	0.0	0.0	0.0	0.0	0.0	145.79310344827584	0.0	0.05627427	-0.05480943	1.01513412	0.03052	0.73248	0.39676	3283758.0	1776544957.908573	0.0	1.0	-1.0	-1.0	-1.0	-1.0	-1.0	-1.0	-1.0	-1.0	0.0	marker	peace	Peace	24	0418
-68319.18	-54883.89	-104570.73	-18464.309999999998	0.0	0.0	0.0	0.0	0.0	0.0	0.0	0.0	0.0	0.0	0.0	0.0	0.0	0.0	145.79310344827584	0.0	0.05627427	-0.05480943	1.01513412	0.03052	0.73248	0.39676	3283759.0	1776544957.912566	0.0	1.0	-1.0	-1.0	-1.0	-1.0	-1.0	-1.0	-1.0	-1.0	0.0	marker	peace	Peace	24	0418
-68250.59999999999	-54875.744999999995	-104514.25499999999	-18403.739999999998	0.0	0.0	0.0	0.0	0.0	0.0	0.0	0.0	0.0	0.0	0.0	0.0	0.0	0.0	145.79310344827584	0.0	0.05627427	-0.05480943	1.01513412	0.03052	0.73248	0.39676	3283760.0	1776544957.912579	0.0	1.0	-1.0	-1.0	-1.0	-1.0	-1.0	-1.0	-1.0	-1.0	0.0	marker	peace	Peace	24	0418
-68325.84	-54877.185	-104590.845	-18476.91	0.0	0.0	0.0	0.0	0.0	0.0	0.0	0.0	0.0	0.0	0.0	0.0	0.0	0.0	145.79310344827584	0.0	0.05627427	-0.05480943	1.01513412	0.03052	0.73248	0.39676	3283761.0	1776544957.916494	0.0	1.0	-1.0	-1.0	-1.0	-1.0	-1.0	-1.0	-1.0	-1.0	0.0	marker	peace	Peace	24	0418
-68327.955	-54877.049999999996	-104611.635	-18483.03	0.0	0.0	0.0	0.0	0.0	0.0	0.0	0.0	0.0	0.0	0.0	0.0	0.0	0.0	145.86206896551727	0.0	0.05627427	-0.05480943	1.01513412	0.03052	0.73248	0.39676	3283762.0	1776544957.916508	0.0	1.0	-1.0	-1.0	-1.0	-1.0	-1.0	-1.0	-1.0	-1.0	0.0	marker	peace	Peace	24	0418
-68308.11	-54877.14	-104578.29	-18454.094999999998	0.0	0.0	0.0	0.0	0.0	0.0	0.0	0.0	0.0	0.0	0.0	0.0	0.0	0.0	145.86206896551727	0.0	0.05627427	-0.05480943	1.01513412	0.03052	0.73248	0.39676	3283763.0	1776544957.92049	0.0	1.0	-1.0	-1.0	-1.0	-1.0	-1.0	-1.0	-1.0	-1.0	0.0	marker	peace	Peace	24	0418
-68189.985	-54879.615	-104469.345	-18358.875	0.0	0.0	0.0	0.0	0.0	0.0	0.0	0.0	0.0	0.0	0.0	0.0	0.0	0.0	145.86206896551727	0.0	0.05627427	-0.05480943	1.01513412	0.03052	0.73248	0.39676	3283764.0	1776544957.920504	0.0	1.0	-1.0	-1.0	-1.0	-1.0	-1.0	-1.0	-1.0	-1.0	0.0	marker	peace	Peace	24	0418
-68110.69499999999	-54894.645	-104412.465	-18301.995	0.0	0.0	0.0	0.0	0.0	0.0	0.0	0.0	0.0	0.0	0.0	0.0	0.0	0.0	145.86206896551727	0.0	0.05627427	-0.05480943	1.01513412	0.03052	0.73248	0.39676	3283765.0	1776544957.924604	0.0	1.0	-1.0	-1.0	-1.0	-1.0	-1.0	-1.0	-1.0	-1.0	0.0	marker	peace	Peace	24	0418
-68413.995	-54925.695	-104661.675	-18543.51	0.0	0.0	0.0	0.0	0.0	0.0	0.0	0.0	0.0	0.0	0.0	0.0	0.0	0.0	145.86206896551727	0.0	0.05627427	-0.05480943	1.01513412	0.03052	0.73248	0.39676	3283766.0	1776544957.924617	0.0	1.0	-1.0	-1.0	-1.0	-1.0	-1.0	-1.0	-1.0	-1.0	0.0	marker	peace	Peace	24	0418
-68435.19	-54934.784999999996	-104664.33	-18548.684999999998	0.0	0.0	0.0	0.0	0.0	0.0	0.0	0.0	0.0	0.0	0.0	0.0	0.0	0.0	145.86206896551727	0.0	0.051818715	-0.056823585	1.01379135	0.19838	1.15976	1.19028	3283767.0	1776544957.928609	0.0	1.0	-1.0	-1.0	-1.0	-1.0	-1.0	-1.0	-1.0	-1.0	0.0	marker	peace	Peace	24	0418
-68364.54	-54939.375	-104595.97499999999	-18494.82	0.0	0.0	0.0	0.0	0.0	0.0	0.0	0.0	0.0	0.0	0.0	0.0	0.0	0.0	145.86206896551727	0.0	0.051818715	-0.056823585	1.01379135	0.19838	1.15976	1.19028	3283768.0	1776544957.928623	0.0	1.0	-1.0	-1.0	-1.0	-1.0	-1.0	-1.0	-1.0	-1.0	0.0	marker	peace	Peace	24	0418
-68352.12	-54949.365	-104569.69499999999	-18472.68	0.0	0.0	0.0	0.0	0.0	0.0	0.0	0.0	0.0	0.0	0.0	0.0	0.0	0.0	145.86206896551727	0.0	0.051818715	-0.056823585	1.01379135	0.19838	1.15976	1.19028	3283769.0	1776544957.932565	0.0	1.0	-1.0	-1.0	-1.0	-1.0	-1.0	-1.0	-1.0	-1.0	0.0	marker	peace	Peace	24	0418
-68292.675	-54938.204999999994	-104505.795	-18435.239999999998	0.0	0.0	0.0	0.0	0.0	0.0	0.0	0.0	0.0	0.0	0.0	0.0	0.0	0.0	145.86206896551727	0.0	0.051818715	-0.056823585	1.01379135	0.19838	1.15976	1.19028	3283770.0	1776544957.932579	0.0	1.0	-1.0	-1.0	-1.0	-1.0	-1.0	-1.0	-1.0	-1.0	0.0	marker	peace	Peace	24	0418
-68202.58499999999	-54932.085	-104484.465	-18402.614999999998	0.0	0.0	0.0	0.0	0.0	0.0	0.0	0.0	0.0	0.0	0.0	0.0	0.0	0.0	145.86206896551727	0.0	0.051818715	-0.056823585	1.01379135	0.19838	1.15976	1.19028	3283771.0	1776544957.936657	0.0	1.0	-1.0	-1.0	-1.0	-1.0	-1.0	-1.0	-1.0	-1.0	0.0	marker	peace	Peace	24	0418
-68302.305	-54945.27	-104611.5	-18461.07	0.0	0.0	0.0	0.0	0.0	0.0	0.0	0.0	0.0	0.0	0.0	0.0	0.0	0.0	145.86206896551727	0.0	0.051818715	-0.056823585	1.01379135	0.19838	1.15976	1.19028	3283772.0	1776544957.936671	0.0	1.0	-1.0	-1.0	-1.0	-1.0	-1.0	-1.0	-1.0	-1.0	0.0	marker	peace	Peace	24	0418
-68399.415	-54957.509999999995	-104678.955	-18521.73	0.0	0.0	0.0	0.0	0.0	0.0	0.0	0.0	0.0	0.0	0.0	0.0	0.0	0.0	145.86206896551727	0.0	0.051818715	-0.056823585	1.01379135	0.19838	1.15976	1.19028	3283773.0	1776544957.94066	0.0	1.0	-1.0	-1.0	-1.0	-1.0	-1.0	-1.0	-1.0	-1.0	0.0	marker	peace	Peace	24	0418
-68359.05	-54965.97	-104643.135	-18515.969999999998	0.0	0.0	0.0	0.0	0.0	0.0	0.0	0.0	0.0	0.0	0.0	0.0	0.0	0.0	145.86206896551727	0.0	0.051818715	-0.056823585	1.01379135	0.19838	1.15976	1.19028	3283774.0	1776544957.940674	0.0	1.0	-1.0	-1.0	-1.0	-1.0	-1.0	-1.0	-1.0	-1.0	0.0	marker	peace	Peace	24	0418
-68355.855	-54975.915	-104584.995	-18472.23	0.0	0.0	0.0	0.0	0.0	0.0	0.0	0.0	0.0	0.0	0.0	0.0	0.0	0.0	145.86206896551727	0.0	0.051818715	-0.056823585	1.01379135	0.19838	1.15976	1.19028	3283775.0	1776544957.944633	0.0	1.0	-1.0	-1.0	-1.0	-1.0	-1.0	-1.0	-1.0	-1.0	0.0	marker	peace	Peace	24	0418
-68304.555	-54986.895	-104557.995	-18454.23	0.0	0.0	0.0	0.0	0.0	0.0	0.0	0.0	0.0	0.0	0.0	0.0	0.0	0.0	145.86206896551727	0.0	0.051818715	-0.056823585	1.01379135	0.19838	1.15976	1.19028	3283776.0	1776544957.944647	0.0	1.0	-1.0	-1.0	-1.0	-1.0	-1.0	-1.0	-1.0	-1.0	0.0	marker	peace	Peace	24	0418
-68188.23	-54983.564999999995	-104452.605	-18341.73	0.0	0.0	0.0	0.0	0.0	0.0	0.0	0.0	0.0	0.0	0.0	0.0	0.0	0.0	145.86206896551727	0.0	0.053161485	-0.0634764	1.011166845	0.9156	1.1444999999999999	0.57988	3283777.0	1776544957.948701	0.0	1.0	-1.0	-1.0	-1.0	-1.0	-1.0	-1.0	-1.0	-1.0	0.0	marker	peace	Peace	24	0418
-68293.70999999999	-54975.645	-104590.98	-18458.91	0.0	0.0	0.0	0.0	0.0	0.0	0.0	0.0	0.0	0.0	0.0	0.0	0.0	0.0	145.86206896551727	0.0	0.053161485	-0.0634764	1.011166845	0.9156	1.1444999999999999	0.57988	3283778.0	1776544957.948715	0.0	1.0	-1.0	-1.0	-1.0	-1.0	-1.0	-1.0	-1.0	-1.0	0.0	marker	peace	Peace	24	0418
-68409.58499999999	-54973.034999999996	-104678.50499999999	-18544.005	0.0	0.0	0.0	0.0	0.0	0.0	0.0	0.0	0.0	0.0	0.0	0.0	0.0	0.0	145.86206896551727	0.0	0.053161485	-0.0634764	1.011166845	0.9156	1.1444999999999999	0.57988	3283779.0	1776544957.952778	0.0	1.0	-1.0	-1.0	-1.0	-1.0	-1.0	-1.0	-1.0	-1.0	0.0	marker	peace	Peace	24	0418
-68350.815	-54973.71	-104611.995	-18483.255	0.0	0.0	0.0	0.0	0.0	0.0	0.0	0.0	0.0	0.0	0.0	0.0	0.0	0.0	145.86206896551727	0.0	0.053161485	-0.0634764	1.011166845	0.9156	1.1444999999999999	0.57988	3283780.0	1776544957.952792	0.0	1.0	-1.0	-1.0	-1.0	-1.0	-1.0	-1.0	-1.0	-1.0	0.0	marker	peace	Peace	24	0418
-68326.73999999999	-54984.104999999996	-104608.305	-18479.475	0.0	0.0	0.0	0.0	0.0	0.0	0.0	0.0	0.0	0.0	0.0	0.0	0.0	0.0	145.86206896551727	0.0	0.053161485	-0.0634764	1.011166845	0.9156	1.1444999999999999	0.57988	3283781.0	1776544957.956635	0.0	1.0	-1.0	-1.0	-1.0	-1.0	-1.0	-1.0	-1.0	-1.0	0.0	marker	peace	Peace	24	0418
-68340.33	-54992.97	-104602.185	-18494.73	0.0	0.0	0.0	0.0	0.0	0.0	0.0	0.0	0.0	0.0	0.0	0.0	0.0	0.0	145.86206896551727	0.0	0.053161485	-0.0634764	1.011166845	0.9156	1.1444999999999999	0.57988	3283782.0	1776544957.956648	0.0	1.0	-1.0	-1.0	-1.0	-1.0	-1.0	-1.0	-1.0	-1.0	0.0	marker	peace	Peace	24	0418
-68333.31	-54994.634999999995	-104585.58	-18477.315	0.0	0.0	0.0	0.0	0.0	0.0	0.0	0.0	0.0	0.0	0.0	0.0	0.0	0.0	145.86206896551727	0.0	0.053161485	-0.0634764	1.011166845	0.9156	1.1444999999999999	0.57988	3283783.0	1776544957.963357	0.0	1.0	-1.0	-1.0	-1.0	-1.0	-1.0	-1.0	-1.0	-1.0	0.0	marker	peace	Peace	24	0418
-68306.13	-54984.24	-104559.435	-18454.14	0.0	0.0	0.0	0.0	0.0	0.0	0.0	0.0	0.0	0.0	0.0	0.0	0.0	0.0	145.86206896551727	0.0	0.053161485	-0.0634764	1.011166845	0.9156	1.1444999999999999	0.57988	3283784.0	1776544957.963371	0.0	1.0	-1.0	-1.0	-1.0	-1.0	-1.0	-1.0	-1.0	-1.0	0.0	marker	peace	Peace	24	0418
-68312.34	-54981.494999999995	-104564.565	-18452.43	0.0	0.0	0.0	0.0	0.0	0.0	0.0	0.0	0.0	0.0	0.0	0.0	0.0	0.0	145.86206896551727	0.0	0.053161485	-0.0634764	1.011166845	0.9156	1.1444999999999999	0.57988	3283785.0	1776544957.964616	0.0	1.0	-1.0	-1.0	-1.0	-1.0	-1.0	-1.0	-1.0	-1.0	0.0	marker	peace	Peace	24	0418
-68317.965	-54979.38	-104578.965	-18464.895	0.0	0.0	0.0	0.0	0.0	0.0	0.0	0.0	0.0	0.0	0.0	0.0	0.0	0.0	145.86206896551727	0.0	0.053161485	-0.0634764	1.011166845	0.9156	1.1444999999999999	0.57988	3283786.0	1776544957.96463	0.0	1.0	-1.0	-1.0	-1.0	-1.0	-1.0	-1.0	-1.0	-1.0	0.0	marker	peace	Peace	24	0418
-68317.515	-54977.174999999996	-104584.68	-18471.96	0.0	0.0	0.0	0.0	0.0	0.0	0.0	0.0	0.0	0.0	0.0	0.0	0.0	0.0	145.86206896551727	0.0	0.051513540000000003	-0.07104474	1.01452377	3.8912999999999998	1.09872	0.27468	3283787.0	1776544957.971185	0.0	1.0	-1.0	-1.0	-1.0	-1.0	-1.0	-1.0	-1.0	-1.0	0.0	marker	peace	Peace	24	0418
-68337.54	-54983.43	-104608.215	-18496.35	0.0	0.0	0.0	0.0	0.0	0.0	0.0	0.0	0.0	0.0	0.0	0.0	0.0	0.0	145.86206896551727	0.0	0.051513540000000003	-0.07104474	1.01452377	3.8912999999999998	1.09872	0.27468	3283788.0	1776544957.971199	0.0	1.0	-1.0	-1.0	-1.0	-1.0	-1.0	-1.0	-1.0	-1.0	0.0	marker	peace	Peace	24	0418
-68294.83499999999	-54985.86	-104573.51999999999	-18466.155	0.0	0.0	0.0	0.0	0.0	0.0	0.0	0.0	0.0	0.0	0.0	0.0	0.0	0.0	145.86206896551727	0.0	0.051513540000000003	-0.07104474	1.01452377	3.8912999999999998	1.09872	0.27468	3283789.0	1776544957.972698	0.0	1.0	-1.0	-1.0	-1.0	-1.0	-1.0	-1.0	-1.0	-1.0	0.0	marker	peace	Peace	24	0418
-68192.19	-54985.59	-104465.205	-18357.3	0.0	0.0	0.0	0.0	0.0	0.0	0.0	0.0	0.0	0.0	0.0	0.0	0.0	0.0	145.86206896551727	0.0	0.051513540000000003	-0.07104474	1.01452377	3.8912999999999998	1.09872	0.27468	3283790.0	1776544957.972726	0.0	1.0	-1.0	-1.0	-1.0	-1.0	-1.0	-1.0	-1.0	-1.0	0.0	marker	peace	Peace	24	0418
-68295.87	-55000.395	-104542.01999999999	-18438.434999999998	0.0	0.0	0.0	0.0	0.0	0.0	0.0	0.0	0.0	0.0	0.0	0.0	0.0	0.0	145.86206896551727	0.0	0.051513540000000003	-0.07104474	1.01452377	3.8912999999999998	1.09872	0.27468	3283791.0	1776544957.980021	0.0	1.0	-1.0	-1.0	-1.0	-1.0	-1.0	-1.0	-1.0	-1.0	0.0	marker	peace	Peace	24	0418
-68363.28	-55004.85	-104601.33	-18484.965	0.0	0.0	0.0	0.0	0.0	0.0	0.0	0.0	0.0	0.0	0.0	0.0	0.0	0.0	145.86206896551727	0.0	0.051513540000000003	-0.07104474	1.01452377	3.8912999999999998	1.09872	0.27468	3283792.0	1776544957.980048	0.0	1.0	-1.0	-1.0	-1.0	-1.0	-1.0	-1.0	-1.0	-1.0	0.0	marker	peace	Peace	24	0418
-68242.36499999999	-54993.06	-104519.205	-18405.719999999998	0.0	0.0	0.0	0.0	0.0	0.0	0.0	0.0	0.0	0.0	0.0	0.0	0.0	0.0	145.86206896551727	0.0	0.051513540000000003	-0.07104474	1.01452377	3.8912999999999998	1.09872	0.27468	3283793.0	1776544957.985829	0.0	1.0	-1.0	-1.0	-1.0	-1.0	-1.0	-1.0	-1.0	-1.0	0.0	marker	peace	Peace	24	0418
-68317.56	-54982.935	-104570.415	-18455.219999999998	0.0	0.0	0.0	0.0	0.0	0.0	0.0	0.0	0.0	0.0	0.0	0.0	0.0	0.0	145.86206896551727	0.0	0.051513540000000003	-0.07104474	1.01452377	3.8912999999999998	1.09872	0.27468	3283794.0	1776544957.985852	0.0	1.0	-1.0	-1.0	-1.0	-1.0	-1.0	-1.0	-1.0	-1.0	0.0	marker	peace	Peace	24	0418
-68309.01	-54975.24	-104591.025	-18477.495	0.0	0.0	0.0	0.0	0.0	0.0	0.0	0.0	0.0	0.0	0.0	0.0	0.0	0.0	145.86206896551727	0.0	0.051513540000000003	-0.07104474	1.01452377	3.8912999999999998	1.09872	0.27468	3283795.0	1776544957.98588	0.0	1.0	-1.0	-1.0	-1.0	-1.0	-1.0	-1.0	-1.0	-1.0	0.0	marker	peace	Peace	24	0418
-68319.54	-54976.95	-104587.92	-18474.704999999998	0.0	0.0	0.0	0.0	0.0	0.0	0.0	0.0	0.0	0.0	0.0	0.0	0.0	0.0	145.86206896551727	0.0	0.051513540000000003	-0.07104474	1.01452377	3.8912999999999998	1.09872	0.27468	3283796.0	1776544957.985889	0.0	1.0	-1.0	-1.0	-1.0	-1.0	-1.0	-1.0	-1.0	-1.0	0.0	marker	peace	Peace	24	0418
-68393.97	-54971.954999999994	-104628.64499999999	-18513.719999999998	0.0	0.0	0.0	0.0	0.0	0.0	0.0	0.0	0.0	0.0	0.0	0.0	0.0	0.0	145.86206896551727	0.0	0.04895007	-0.066833325	1.020444165	2.24322	0.50358	0.5341	3283797.0	1776544957.989056	0.0	1.0	-1.0	-1.0	-1.0	-1.0	-1.0	-1.0	-1.0	-1.0	0.0	marker	peace	Peace	24	0418
-68319.45	-54966.869999999995	-104559.61499999999	-18471.195	0.0	0.0	0.0	0.0	0.0	0.0	0.0	0.0	0.0	0.0	0.0	0.0	0.0	0.0	145.86206896551727	0.0	0.04895007	-0.066833325	1.020444165	2.24322	0.50358	0.5341	3283798.0	1776544957.989079	0.0	1.0	-1.0	-1.0	-1.0	-1.0	-1.0	-1.0	-1.0	-1.0	0.0	marker	peace	Peace	24	0418
-68325.75	-54977.13	-104571.0	-18481.32	0.0	0.0	0.0	0.0	0.0	0.0	0.0	0.0	0.0	0.0	0.0	0.0	0.0	0.0	145.86206896551727	0.0	0.04895007	-0.066833325	1.020444165	2.24322	0.50358	0.5341	3283799.0	1776544957.992812	0.0	1.0	-1.0	-1.0	-1.0	-1.0	-1.0	-1.0	-1.0	-1.0	0.0	marker	peace	Peace	24	0418
-68391.315	-54980.82	-104652.22499999999	-18527.175	0.0	0.0	0.0	0.0	0.0	0.0	0.0	0.0	0.0	0.0	0.0	0.0	0.0	0.0	145.86206896551727	0.0	0.04895007	-0.066833325	1.020444165	2.24322	0.50358	0.5341	3283800.0	1776544957.992857	0.0	1.0	-1.0	-1.0	-1.0	-1.0	-1.0	-1.0	-1.0	-1.0	0.0	marker	peace	Peace	24	0418
-68367.78	-54982.485	-104611.05	-18502.515	0.0	0.0	0.0	0.0	0.0	0.0	0.0	0.0	0.0	0.0	0.0	0.0	0.0	0.0	145.86206896551727	0.0	0.04895007	-0.066833325	1.020444165	2.24322	0.50358	0.5341	3283801.0	1776544957.996797	0.0	1.0	-1.0	-1.0	-1.0	-1.0	-1.0	-1.0	-1.0	-1.0	0.0	marker	peace	Peace	24	0418
-68348.43	-54975.869999999995	-104596.425	-18482.445	0.0	0.0	0.0	0.0	0.0	0.0	0.0	0.0	0.0	0.0	0.0	0.0	0.0	0.0	145.86206896551727	0.0	0.04895007	-0.066833325	1.020444165	2.24322	0.50358	0.5341	3283802.0	1776544957.996827	0.0	1.0	-1.0	-1.0	-1.0	-1.0	-1.0	-1.0	-1.0	-1.0	0.0	marker	peace	Peace	24	0418
-68295.78	-54968.174999999996	-104578.515	-18446.625	0.0	0.0	0.0	0.0	0.0	0.0	0.0	0.0	0.0	0.0	0.0	0.0	0.0	0.0	145.86206896551727	0.0	0.04895007	-0.066833325	1.020444165	2.24322	0.50358	0.5341	3283803.0	1776544958.002206	0.0	1.0	-1.0	-1.0	-1.0	-1.0	-1.0	-1.0	-1.0	-1.0	0.0	marker	peace	Peace	24	0418
-68283.315	-54969.255	-104580.09	-18459.495	0.0	0.0	0.0	0.0	0.0	0.0	0.0	0.0	0.0	0.0	0.0	0.0	0.0	0.0	145.86206896551727	0.0	0.04895007	-0.066833325	1.020444165	2.24322	0.50358	0.5341	3283804.0	1776544958.002234	0.0	1.0	-1.0	-1.0	-1.0	-1.0	-1.0	-1.0	-1.0	-1.0	0.0	marker	peace	Peace	24	0418
-68214.19499999999	-54972.63	-104504.715	-18388.62	0.0	0.0	0.0	0.0	0.0	0.0	0.0	0.0	0.0	0.0	0.0	0.0	0.0	0.0	145.86206896551727	0.0	0.04895007	-0.066833325	1.020444165	2.24322	0.50358	0.5341	3283805.0	1776544958.004758	0.0	1.0	-1.0	-1.0	-1.0	-1.0	-1.0	-1.0	-1.0	-1.0	0.0	marker	peace	Peace	24	0418
-68315.67	-54976.59	-104560.01999999999	-18441.135	0.0	0.0	0.0	0.0	0.0	0.0	0.0	0.0	0.0	0.0	0.0	0.0	0.0	0.0	145.86206896551727	0.0	0.04895007	-0.066833325	1.020444165	2.24322	0.50358	0.5341	3283806.0	1776544958.004772	0.0	1.0	-1.0	-1.0	-1.0	-1.0	-1.0	-1.0	-1.0	-1.0	0.0	marker	peace	Peace	24	0418
-68394.78	-54988.02	-104613.56999999999	-18504.405	0.0	0.0	0.0	0.0	0.0	0.0	0.0	0.0	0.0	0.0	0.0	0.0	0.0	0.0	145.86206896551727	0.0	0.05017077	-0.069518865	1.0225803900000001	1.8159399999999999	-0.13734	-0.3815	3283807.0	1776544958.008854	0.0	1.0	-1.0	-1.0	-1.0	-1.0	-1.0	-1.0	-1.0	-1.0	0.0	marker	peace	Peace	24	0418
-68347.17	-54994.59	-104595.705	-18487.665	0.0	0.0	0.0	0.0	0.0	0.0	0.0	0.0	0.0	0.0	0.0	0.0	0.0	0.0	145.86206896551727	0.0	0.05017077	-0.069518865	1.0225803900000001	1.8159399999999999	-0.13734	-0.3815	3283808.0	1776544958.008875	0.0	1.0	-1.0	-1.0	-1.0	-1.0	-1.0	-1.0	-1.0	-1.0	0.0	marker	peace	Peace	24	0418
-68300.86499999999	-54998.595	-104559.61499999999	-18462.015	0.0	0.0	0.0	0.0	0.0	0.0	0.0	0.0	0.0	0.0	0.0	0.0	0.0	0.0	145.86206896551727	0.0	0.05017077	-0.069518865	1.0225803900000001	1.8159399999999999	-0.13734	-0.3815	3283809.0	1776544958.012984	0.0	1.0	-1.0	-1.0	-1.0	-1.0	-1.0	-1.0	-1.0	-1.0	0.0	marker	peace	Peace	24	0418
-68277.69	-54991.575	-104510.61	-18436.725	0.0	0.0	0.0	0.0	0.0	0.0	0.0	0.0	0.0	0.0	0.0	0.0	0.0	0.0	145.86206896551727	0.0	0.05017077	-0.069518865	1.0225803900000001	1.8159399999999999	-0.13734	-0.3815	3283810.0	1776544958.013001	0.0	1.0	-1.0	-1.0	-1.0	-1.0	-1.0	-1.0	-1.0	-1.0	0.0	marker	peace	Peace	24	0418
-68331.23999999999	-54982.395	-104595.48	-18470.745	0.0	0.0	0.0	0.0	0.0	0.0	0.0	0.0	0.0	0.0	0.0	0.0	0.0	0.0	145.86206896551727	0.0	0.05017077	-0.069518865	1.0225803900000001	1.8159399999999999	-0.13734	-0.3815	3283811.0	1776544958.016986	0.0	1.0	-1.0	-1.0	-1.0	-1.0	-1.0	-1.0	-1.0	-1.0	0.0	marker	peace	Peace	24	0418
-68338.305	-54978.03	-104607.0	-18473.175	0.0	0.0	0.0	0.0	0.0	0.0	0.0	0.0	0.0	0.0	0.0	0.0	0.0	0.0	145.86206896551727	0.0	0.05017077	-0.069518865	1.0225803900000001	1.8159399999999999	-0.13734	-0.3815	3283812.0	1776544958.01705	0.0	1.0	-1.0	-1.0	-1.0	-1.0	-1.0	-1.0	-1.0	-1.0	0.0	marker	peace	Peace	24	0418
-68318.86499999999	-55008.405	-104602.185	-18469.35	0.0	0.0	0.0	0.0	0.0	0.0	0.0	0.0	0.0	0.0	0.0	0.0	0.0	0.0	145.86206896551727	0.0	0.05017077	-0.069518865	1.0225803900000001	1.8159399999999999	-0.13734	-0.3815	3283813.0	1776544958.02095	0.0	1.0	-1.0	-1.0	-1.0	-1.0	-1.0	-1.0	-1.0	-1.0	0.0	marker	peace	Peace	24	0418
-68319.495	-55047.329999999994	-104589.94499999999	-18484.695	0.0	0.0	0.0	0.0	0.0	0.0	0.0	0.0	0.0	0.0	0.0	0.0	0.0	0.0	145.86206896551727	0.0	0.05017077	-0.069518865	1.0225803900000001	1.8159399999999999	-0.13734	-0.3815	3283814.0	1776544958.020977	0.0	1.0	-1.0	-1.0	-1.0	-1.0	-1.0	-1.0	-1.0	-1.0	0.0	marker	peace	Peace	24	0418
-68340.19499999999	-55060.65	-104575.14	-18482.355	0.0	0.0	0.0	0.0	0.0	0.0	0.0	0.0	0.0	0.0	0.0	0.0	0.0	0.0	145.86206896551727	0.0	0.05017077	-0.069518865	1.0225803900000001	1.8159399999999999	-0.13734	-0.3815	3283815.0	1776544958.024913	0.0	1.0	-1.0	-1.0	-1.0	-1.0	-1.0	-1.0	-1.0	-1.0	0.0	marker	peace	Peace	24	0418
-68310.18	-55063.305	-104559.3	-18458.73	0.0	0.0	0.0	0.0	0.0	0.0	0.0	0.0	0.0	0.0	0.0	0.0	0.0	0.0	145.86206896551727	0.0	0.05017077	-0.069518865	1.0225803900000001	1.8159399999999999	-0.13734	-0.3815	3283816.0	1776544958.024931	0.0	1.0	-1.0	-1.0	-1.0	-1.0	-1.0	-1.0	-1.0	-1.0	0.0	marker	peace	Peace	24	0418
-68248.17	-55059.39	-104492.655	-18408.105	0.0	0.0	0.0	0.0	0.0	0.0	0.0	0.0	0.0	0.0	0.0	0.0	0.0	0.0	145.86206896551727	0.0	0.049499385	-0.0744627	1.02184797	4.02864	-0.35097999999999996	-0.9613799999999999	3283817.0	1776544958.028924	0.0	1.0	-1.0	-1.0	-1.0	-1.0	-1.0	-1.0	-1.0	-1.0	0.0	marker	peace	Peace	24	0418
-68342.84999999999	-55057.185	-104560.245	-18472.23	0.0	0.0	0.0	0.0	0.0	0.0	0.0	0.0	0.0	0.0	0.0	0.0	0.0	0.0	145.86206896551727	0.0	0.049499385	-0.0744627	1.02184797	4.02864	-0.35097999999999996	-0.9613799999999999	3283818.0	1776544958.028938	0.0	1.0	-1.0	-1.0	-1.0	-1.0	-1.0	-1.0	-1.0	-1.0	0.0	marker	peace	Peace	24	0418
-68396.4	-55057.77	-104647.36499999999	-18522.63	0.0	0.0	0.0	0.0	0.0	0.0	0.0	0.0	0.0	0.0	0.0	0.0	0.0	0.0	145.86206896551727	0.0	0.049499385	-0.0744627	1.02184797	4.02864	-0.35097999999999996	-0.9613799999999999	3283819.0	1776544958.033062	0.0	1.0	-1.0	-1.0	-1.0	-1.0	-1.0	-1.0	-1.0	-1.0	0.0	marker	peace	Peace	24	0418
-68340.42	-55066.14	-104626.935	-18485.055	0.0	0.0	0.0	0.0	0.0	0.0	0.0	0.0	0.0	0.0	0.0	0.0	0.0	0.0	145.86206896551727	0.0	0.049499385	-0.0744627	1.02184797	4.02864	-0.35097999999999996	-0.9613799999999999	3283820.0	1776544958.033094	0.0	1.0	-1.0	-1.0	-1.0	-1.0	-1.0	-1.0	-1.0	-1.0	0.0	marker	peace	Peace	24	0418
-68291.64	-55078.11	-104560.83	-18425.43	0.0	0.0	0.0	0.0	0.0	0.0	0.0	0.0	0.0	0.0	0.0	0.0	0.0	0.0	145.86206896551727	0.0	0.049499385	-0.0744627	1.02184797	4.02864	-0.35097999999999996	-0.9613799999999999	3283821.0	1776544958.042376	0.0	1.0	-1.0	-1.0	-1.0	-1.0	-1.0	-1.0	-1.0	-1.0	0.0	marker	peace	Peace	24	0418
-68301.58499999999	-55091.204999999994	-104586.39	-18459.809999999998	0.0	0.0	0.0	0.0	0.0	0.0	0.0	0.0	0.0	0.0	0.0	0.0	0.0	0.0	145.86206896551727	0.0	0.049499385	-0.0744627	1.02184797	4.02864	-0.35097999999999996	-0.9613799999999999	3283822.0	1776544958.042403	0.0	1.0	-1.0	-1.0	-1.0	-1.0	-1.0	-1.0	-1.0	-1.0	0.0	marker	peace	Peace	24	0418
-68296.36499999999	-55093.365	-104568.705	-18447.84	0.0	0.0	0.0	0.0	0.0	0.0	0.0	0.0	0.0	0.0	0.0	0.0	0.0	0.0	145.86206896551727	0.0	0.049499385	-0.0744627	1.02184797	4.02864	-0.35097999999999996	-0.9613799999999999	3283823.0	1776544958.042429	0.0	1.0	-1.0	-1.0	-1.0	-1.0	-1.0	-1.0	-1.0	-1.0	0.0	marker	peace	Peace	24	0418
-68310.855	-55092.284999999996	-104556.375	-18426.915	0.0	0.0	0.0	0.0	0.0	0.0	0.0	0.0	0.0	0.0	0.0	0.0	0.0	0.0	145.86206896551727	0.0	0.049499385	-0.0744627	1.02184797	4.02864	-0.35097999999999996	-0.9613799999999999	3283824.0	1776544958.042443	0.0	1.0	-1.0	-1.0	-1.0	-1.0	-1.0	-1.0	-1.0	-1.0	0.0	marker	peace	Peace	24	0418
-68307.3	-55095.525	-104551.47	-18429.39	0.0	0.0	0.0	0.0	0.0	0.0	0.0	0.0	0.0	0.0	0.0	0.0	0.0	0.0	145.86206896551727	0.0	0.049499385	-0.0744627	1.02184797	4.02864	-0.35097999999999996	-0.9613799999999999	3283825.0	1776544958.044925	0.0	1.0	-1.0	-1.0	-1.0	-1.0	-1.0	-1.0	-1.0	-1.0	0.0	marker	peace	Peace	24	0418
-68355.54	-55099.665	-104600.925	-18496.89	0.0	0.0	0.0	0.0	0.0	0.0	0.0	0.0	0.0	0.0	0.0	0.0	0.0	0.0	145.86206896551727	0.0	0.049499385	-0.0744627	1.02184797	4.02864	-0.35097999999999996	-0.9613799999999999	3283826.0	1776544958.044941	0.0	1.0	-1.0	-1.0	-1.0	-1.0	-1.0	-1.0	-1.0	-1.0	0.0	marker	peace	Peace	24	0418
-68273.955	-55082.79	-104531.355	-18444.329999999998	0.0	0.0	0.0	0.0	0.0	0.0	0.0	0.0	0.0	0.0	0.0	0.0	0.0	0.0	145.86206896551727	0.0	0.049621455	-0.071594055	1.0180638	5.20366	-0.27468	-1.2207999999999999	3283827.0	1776544958.048978	0.0	1.0	-1.0	-1.0	-1.0	-1.0	-1.0	-1.0	-1.0	-1.0	0.0	marker	peace	Peace	24	0418
-68337.81	-55072.575	-104587.73999999999	-18472.68	0.0	0.0	0.0	0.0	0.0	0.0	0.0	0.0	0.0	0.0	0.0	0.0	0.0	0.0	145.86206896551727	0.0	0.049621455	-0.071594055	1.0180638	5.20366	-0.27468	-1.2207999999999999	3283828.0	1776544958.049016	0.0	1.0	-1.0	-1.0	-1.0	-1.0	-1.0	-1.0	-1.0	-1.0	0.0	marker	peace	Peace	24	0418
-68353.92	-55071.405	-104612.53499999999	-18481.094999999998	0.0	0.0	0.0	0.0	0.0	0.0	0.0	0.0	0.0	0.0	0.0	0.0	0.0	0.0	145.86206896551727	0.0	0.049621455	-0.071594055	1.0180638	5.20366	-0.27468	-1.2207999999999999	3283829.0	1776544958.052959	0.0	1.0	-1.0	-1.0	-1.0	-1.0	-1.0	-1.0	-1.0	-1.0	0.0	marker	peace	Peace	24	0418
-68279.08499999999	-55062.81	-104545.08	-18434.114999999998	0.0	0.0	0.0	0.0	0.0	0.0	0.0	0.0	0.0	0.0	0.0	0.0	0.0	0.0	145.86206896551727	0.0	0.049621455	-0.071594055	1.0180638	5.20366	-0.27468	-1.2207999999999999	3283830.0	1776544958.052982	0.0	1.0	-1.0	-1.0	-1.0	-1.0	-1.0	-1.0	-1.0	-1.0	0.0	marker	peace	Peace	24	0418
-68293.08	-55065.825	-104550.075	-18442.305	0.0	0.0	0.0	0.0	0.0	0.0	0.0	0.0	0.0	0.0	0.0	0.0	0.0	0.0	145.86206896551727	0.0	0.049621455	-0.071594055	1.0180638	5.20366	-0.27468	-1.2207999999999999	3283831.0	1776544958.056979	0.0	1.0	-1.0	-1.0	-1.0	-1.0	-1.0	-1.0	-1.0	-1.0	0.0	marker	peace	Peace	24	0418
-68334.61499999999	-55082.88	-104572.845	-18459.945	0.0	0.0	0.0	0.0	0.0	0.0	0.0	0.0	0.0	0.0	0.0	0.0	0.0	0.0	145.86206896551727	0.0	0.049621455	-0.071594055	1.0180638	5.20366	-0.27468	-1.2207999999999999	3283832.0	1776544958.057	0.0	1.0	-1.0	-1.0	-1.0	-1.0	-1.0	-1.0	-1.0	-1.0	0.0	marker	peace	Peace	24	0418
-68321.34	-55098.674999999996	-104570.09999999999	-18465.39	0.0	0.0	0.0	0.0	0.0	0.0	0.0	0.0	0.0	0.0	0.0	0.0	0.0	0.0	145.86206896551727	0.0	0.049621455	-0.071594055	1.0180638	5.20366	-0.27468	-1.2207999999999999	3283833.0	1776544958.064351	0.0	1.0	-1.0	-1.0	-1.0	-1.0	-1.0	-1.0	-1.0	-1.0	0.0	marker	peace	Peace	24	0418
-68310.98999999999	-55107.54	-104554.215	-18459.18	0.0	0.0	0.0	0.0	0.0	0.0	0.0	0.0	0.0	0.0	0.0	0.0	0.0	0.0	145.86206896551727	0.0	0.049621455	-0.071594055	1.0180638	5.20366	-0.27468	-1.2207999999999999	3283834.0	1776544958.064378	0.0	1.0	-1.0	-1.0	-1.0	-1.0	-1.0	-1.0	-1.0	-1.0	0.0	marker	peace	Peace	24	0418
-68307.525	-55115.64	-104581.665	-18462.149999999998	0.0	0.0	0.0	0.0	0.0	0.0	0.0	0.0	0.0	0.0	0.0	0.0	0.0	0.0	145.86206896551727	0.0	0.049621455	-0.071594055	1.0180638	5.20366	-0.27468	-1.2207999999999999	3283835.0	1776544958.064974	0.0	1.0	-1.0	-1.0	-1.0	-1.0	-1.0	-1.0	-1.0	-1.0	0.0	marker	peace	Peace	24	0418
-68190.435	-55122.119999999995	-104484.64499999999	-18356.04	0.0	0.0	0.0	0.0	0.0	0.0	0.0	0.0	0.0	0.0	0.0	0.0	0.0	0.0	145.86206896551727	0.0	0.049621455	-0.071594055	1.0180638	5.20366	-0.27468	-1.2207999999999999	3283836.0	1776544958.065012	0.0	1.0	-1.0	-1.0	-1.0	-1.0	-1.0	-1.0	-1.0	-1.0	0.0	marker	peace	Peace	24	0418
-68331.915	-55137.509999999995	-104591.11499999999	-18463.32	0.0	0.0	0.0	0.0	0.0	0.0	0.0	0.0	0.0	0.0	0.0	0.0	0.0	0.0	145.86206896551727	0.0	0.054382185	-0.075500295	1.00939683	4.79164	0.6714399999999999	-1.43444	3283837.0	1776544958.075453	0.0	1.0	-1.0	-1.0	-1.0	-1.0	-1.0	-1.0	-1.0	-1.0	0.0	marker	peace	Peace	24	0418
-68399.595	-55141.244999999995	-104659.92	-18526.05	0.0	0.0	0.0	0.0	0.0	0.0	0.0	0.0	0.0	0.0	0.0	0.0	0.0	0.0	145.86206896551727	0.0	0.054382185	-0.075500295	1.00939683	4.79164	0.6714399999999999	-1.43444	3283838.0	1776544958.075478	0.0	1.0	-1.0	-1.0	-1.0	-1.0	-1.0	-1.0	-1.0	-1.0	0.0	marker	peace	Peace	24	0418
-68322.555	-55135.439999999995	-104594.53499999999	-18479.475	0.0	0.0	0.0	0.0	0.0	0.0	0.0	0.0	0.0	0.0	0.0	0.0	0.0	0.0	145.86206896551727	0.0	0.054382185	-0.075500295	1.00939683	4.79164	0.6714399999999999	-1.43444	3283839.0	1776544958.075506	0.0	1.0	-1.0	-1.0	-1.0	-1.0	-1.0	-1.0	-1.0	-1.0	0.0	marker	peace	Peace	24	0418
-68344.965	-55137.915	-104596.425	-18499.77	0.0	0.0	0.0	0.0	0.0	0.0	0.0	0.0	0.0	0.0	0.0	0.0	0.0	0.0	145.86206896551727	0.0	0.054382185	-0.075500295	1.00939683	4.79164	0.6714399999999999	-1.43444	3283840.0	1776544958.075519	0.0	1.0	-1.0	-1.0	-1.0	-1.0	-1.0	-1.0	-1.0	-1.0	0.0	marker	peace	Peace	24	0418
-68347.845	-55132.695	-104590.305	-18501.84	0.0	0.0	0.0	0.0	0.0	0.0	0.0	0.0	0.0	0.0	0.0	0.0	0.0	0.0	145.86206896551727	0.0	0.054382185	-0.075500295	1.00939683	4.79164	0.6714399999999999	-1.43444	3283841.0	1776544958.077101	0.0	1.0	-1.0	-1.0	-1.0	-1.0	-1.0	-1.0	-1.0	-1.0	0.0	marker	peace	Peace	24	0418
-68302.70999999999	-55130.534999999996	-104558.175	-18471.239999999998	0.0	0.0	0.0	0.0	0.0	0.0	0.0	0.0	0.0	0.0	0.0	0.0	0.0	0.0	145.86206896551727	0.0	0.054382185	-0.075500295	1.00939683	4.79164	0.6714399999999999	-1.43444	3283842.0	1776544958.077119	0.0	1.0	-1.0	-1.0	-1.0	-1.0	-1.0	-1.0	-1.0	-1.0	0.0	marker	peace	Peace	24	0418
-68348.025	-55124.595	-104593.5	-18459.045	0.0	0.0	0.0	0.0	0.0	0.0	0.0	0.0	0.0	0.0	0.0	0.0	0.0	0.0	145.86206896551727	0.0	0.054382185	-0.075500295	1.00939683	4.79164	0.6714399999999999	-1.43444	3283843.0	1776544958.082326	0.0	1.0	-1.0	-1.0	-1.0	-1.0	-1.0	-1.0	-1.0	-1.0	0.0	marker	peace	Peace	24	0418
-68323.905	-55103.67	-104588.955	-18452.745	0.0	0.0	0.0	0.0	0.0	0.0	0.0	0.0	0.0	0.0	0.0	0.0	0.0	0.0	145.86206896551727	0.0	0.054382185	-0.075500295	1.00939683	4.79164	0.6714399999999999	-1.43444	3283844.0	1776544958.082362	0.0	1.0	-1.0	-1.0	-1.0	-1.0	-1.0	-1.0	-1.0	-1.0	0.0	marker	peace	Peace	24	0418
-68288.94	-55095.479999999996	-104547.87	-18436.23	0.0	0.0	0.0	0.0	0.0	0.0	0.0	0.0	0.0	0.0	0.0	0.0	0.0	0.0	145.86206896551727	0.0	0.054382185	-0.075500295	1.00939683	4.79164	0.6714399999999999	-1.43444	3283845.0	1776544958.088218	0.0	1.0	-1.0	-1.0	-1.0	-1.0	-1.0	-1.0	-1.0	-1.0	0.0	marker	peace	Peace	24	0418
-68372.685	-55101.329999999994	-104620.76999999999	-18497.565	0.0	0.0	0.0	0.0	0.0	0.0	0.0	0.0	0.0	0.0	0.0	0.0	0.0	0.0	145.86206896551727	0.0	0.054382185	-0.075500295	1.00939683	4.79164	0.6714399999999999	-1.43444	3283846.0	1776544958.088247	0.0	1.0	-1.0	-1.0	-1.0	-1.0	-1.0	-1.0	-1.0	-1.0	0.0	marker	peace	Peace	24	0418
-68354.325	-55101.284999999996	-104597.14499999999	-18485.64	0.0	0.0	0.0	0.0	0.0	0.0	0.0	0.0	0.0	0.0	0.0	0.0	0.0	0.0	145.86206896551727	0.0	0.052184925	-0.069518865	1.010922705	4.45592	0.48832	-1.4191799999999999	3283847.0	1776544958.09133	0.0	1.0	-1.0	-1.0	-1.0	-1.0	-1.0	-1.0	-1.0	-1.0	0.0	marker	peace	Peace	24	0418
-68317.69499999999	-55110.284999999996	-104557.59	-18478.62	0.0	0.0	0.0	0.0	0.0	0.0	0.0	0.0	0.0	0.0	0.0	0.0	0.0	0.0	145.86206896551727	0.0	0.052184925	-0.069518865	1.010922705	4.45592	0.48832	-1.4191799999999999	3283848.0	1776544958.091349	0.0	1.0	-1.0	-1.0	-1.0	-1.0	-1.0	-1.0	-1.0	-1.0	0.0	marker	peace	Peace	24	0418
-68266.8	-55120.005	-104517.405	-18421.92	0.0	0.0	0.0	0.0	0.0	0.0	0.0	0.0	0.0	0.0	0.0	0.0	0.0	0.0	145.86206896551727	0.0	0.052184925	-0.069518865	1.010922705	4.45592	0.48832	-1.4191799999999999	3283849.0	1776544958.094321	0.0	1.0	-1.0	-1.0	-1.0	-1.0	-1.0	-1.0	-1.0	-1.0	0.0	marker	peace	Peace	24	0418
-68303.97	-55141.29	-104545.75499999999	-18436.725	0.0	0.0	0.0	0.0	0.0	0.0	0.0	0.0	0.0	0.0	0.0	0.0	0.0	0.0	145.86206896551727	0.0	0.052184925	-0.069518865	1.010922705	4.45592	0.48832	-1.4191799999999999	3283850.0	1776544958.09434	0.0	1.0	-1.0	-1.0	-1.0	-1.0	-1.0	-1.0	-1.0	-1.0	0.0	marker	peace	Peace	24	0418
-68323.545	-55158.884999999995	-104615.37	-18461.88	0.0	0.0	0.0	0.0	0.0	0.0	0.0	0.0	0.0	0.0	0.0	0.0	0.0	0.0	145.86206896551727	0.0	0.052184925	-0.069518865	1.010922705	4.45592	0.48832	-1.4191799999999999	3283851.0	1776544958.097706	0.0	1.0	-1.0	-1.0	-1.0	-1.0	-1.0	-1.0	-1.0	-1.0	0.0	marker	peace	Peace	24	0418
-68359.14	-55155.375	-104627.97	-18490.05	0.0	0.0	0.0	0.0	0.0	0.0	0.0	0.0	0.0	0.0	0.0	0.0	0.0	0.0	145.86206896551727	0.0	0.052184925	-0.069518865	1.010922705	4.45592	0.48832	-1.4191799999999999	3283852.0	1776544958.097729	0.0	1.0	-1.0	-1.0	-1.0	-1.0	-1.0	-1.0	-1.0	-1.0	0.0	marker	peace	Peace	24	0418
-68305.545	-55150.92	-104519.745	-18437.895	0.0	0.0	0.0	0.0	0.0	0.0	0.0	0.0	0.0	0.0	0.0	0.0	0.0	0.0	145.86206896551727	0.0	0.052184925	-0.069518865	1.010922705	4.45592	0.48832	-1.4191799999999999	3283853.0	1776544958.101339	0.0	1.0	-1.0	-1.0	-1.0	-1.0	-1.0	-1.0	-1.0	-1.0	0.0	marker	peace	Peace	24	0418
-68280.48	-55155.6	-104505.93	-18412.065	0.0	0.0	0.0	0.0	0.0	0.0	0.0	0.0	0.0	0.0	0.0	0.0	0.0	0.0	145.86206896551727	0.0	0.052184925	-0.069518865	1.010922705	4.45592	0.48832	-1.4191799999999999	3283854.0	1776544958.101367	0.0	1.0	-1.0	-1.0	-1.0	-1.0	-1.0	-1.0	-1.0	-1.0	0.0	marker	peace	Peace	24	0418
-68356.395	-55160.055	-104596.83	-18466.695	0.0	0.0	0.0	0.0	0.0	0.0	0.0	0.0	0.0	0.0	0.0	0.0	0.0	0.0	145.86206896551727	0.0	0.052184925	-0.069518865	1.010922705	4.45592	0.48832	-1.4191799999999999	3283855.0	1776544958.109215	0.0	1.0	-1.0	-1.0	-1.0	-1.0	-1.0	-1.0	-1.0	-1.0	0.0	marker	peace	Peace	24	0418
-68381.325	-55160.46	-104623.605	-18484.02	0.0	0.0	0.0	0.0	0.0	0.0	0.0	0.0	0.0	0.0	0.0	0.0	0.0	0.0	145.86206896551727	0.0	0.052184925	-0.069518865	1.010922705	4.45592	0.48832	-1.4191799999999999	3283856.0	1776544958.109235	0.0	1.0	-1.0	-1.0	-1.0	-1.0	-1.0	-1.0	-1.0	-1.0	0.0	marker	peace	Peace	24	0418
-68300.55	-55156.994999999995	-104580.72	-18445.815	0.0	0.0	0.0	0.0	0.0	0.0	0.0	0.0	0.0	0.0	0.0	0.0	0.0	0.0	145.86206896551727	0.0	0.048889035	-0.063415365	1.017514485	3.3571999999999997	0.24416	-0.88508	3283857.0	1776544958.109263	0.0	1.0	-1.0	-1.0	-1.0	-1.0	-1.0	-1.0	-1.0	-1.0	0.0	marker	peace	Peace	24	0418
-68328.09	-55161.36	-104619.42	-18482.85	0.0	0.0	0.0	0.0	0.0	0.0	0.0	0.0	0.0	0.0	0.0	0.0	0.0	0.0	145.86206896551727	0.0	0.048889035	-0.063415365	1.017514485	3.3571999999999997	0.24416	-0.88508	3283858.0	1776544958.109276	0.0	1.0	-1.0	-1.0	-1.0	-1.0	-1.0	-1.0	-1.0	-1.0	0.0	marker	peace	Peace	24	0418
-68345.37	-55168.064999999995	-104604.3	-18479.925	0.0	0.0	0.0	0.0	0.0	0.0	0.0	0.0	0.0	0.0	0.0	0.0	0.0	0.0	145.86206896551727	0.0	0.048889035	-0.063415365	1.017514485	3.3571999999999997	0.24416	-0.88508	3283859.0	1776544958.113344	0.0	1.0	-1.0	-1.0	-1.0	-1.0	-1.0	-1.0	-1.0	-1.0	0.0	marker	peace	Peace	24	0418
-68305.635	-55165.454999999994	-104566.455	-18456.614999999998	0.0	0.0	0.0	0.0	0.0	0.0	0.0	0.0	0.0	0.0	0.0	0.0	0.0	0.0	145.86206896551727	0.0	0.048889035	-0.063415365	1.017514485	3.3571999999999997	0.24416	-0.88508	3283860.0	1776544958.113373	0.0	1.0	-1.0	-1.0	-1.0	-1.0	-1.0	-1.0	-1.0	-1.0	0.0	marker	peace	Peace	24	0418
-68279.805	-55163.475	-104564.97	-18439.02	0.0	0.0	0.0	0.0	0.0	0.0	0.0	0.0	0.0	0.0	0.0	0.0	0.0	0.0	145.86206896551727	0.0	0.048889035	-0.063415365	1.017514485	3.3571999999999997	0.24416	-0.88508	3283861.0	1776544958.11738	0.0	1.0	-1.0	-1.0	-1.0	-1.0	-1.0	-1.0	-1.0	-1.0	0.0	marker	peace	Peace	24	0418
-68269.905	-55163.655	-104557.36499999999	-18434.745	0.0	0.0	0.0	0.0	0.0	0.0	0.0	0.0	0.0	0.0	0.0	0.0	0.0	0.0	145.86206896551727	0.0	0.048889035	-0.063415365	1.017514485	3.3571999999999997	0.24416	-0.88508	3283862.0	1776544958.117406	0.0	1.0	-1.0	-1.0	-1.0	-1.0	-1.0	-1.0	-1.0	-1.0	0.0	marker	peace	Peace	24	0418
-68301.09	-55159.38	-104578.245	-18471.6	0.0	0.0	0.0	0.0	0.0	0.0	0.0	0.0	0.0	0.0	0.0	0.0	0.0	0.0	145.86206896551727	0.0	0.048889035	-0.063415365	1.017514485	3.3571999999999997	0.24416	-0.88508	3283863.0	1776544958.121199	0.0	1.0	-1.0	-1.0	-1.0	-1.0	-1.0	-1.0	-1.0	-1.0	0.0	marker	peace	Peace	24	0418
-68358.06	-55162.575	-104601.15	-18491.94	0.0	0.0	0.0	0.0	0.0	0.0	0.0	0.0	0.0	0.0	0.0	0.0	0.0	0.0	145.86206896551727	0.0	0.048889035	-0.063415365	1.017514485	3.3571999999999997	0.24416	-0.88508	3283864.0	1776544958.121221	0.0	1.0	-1.0	-1.0	-1.0	-1.0	-1.0	-1.0	-1.0	-1.0	0.0	marker	peace	Peace	24	0418
-68355.27	-55166.579999999994	-104585.175	-18466.065	0.0	0.0	0.0	0.0	0.0	0.0	0.0	0.0	0.0	0.0	0.0	0.0	0.0	0.0	145.86206896551727	0.0	0.048889035	-0.063415365	1.017514485	3.3571999999999997	0.24416	-0.88508	3283865.0	1776544958.125325	0.0	1.0	-1.0	-1.0	-1.0	-1.0	-1.0	-1.0	-1.0	-1.0	0.0	marker	peace	Peace	24	0418
-68354.28	-55170.854999999996	-104590.62	-18467.505	0.0	0.0	0.0	0.0	0.0	0.0	0.0	0.0	0.0	0.0	0.0	0.0	0.0	0.0	145.86206896551727	0.0	0.048889035	-0.063415365	1.017514485	3.3571999999999997	0.24416	-0.88508	3283866.0	1776544958.12534	0.0	1.0	-1.0	-1.0	-1.0	-1.0	-1.0	-1.0	-1.0	-1.0	0.0	marker	peace	Peace	24	0418
-68294.97	-55173.96	-104567.805	-18452.16	0.0	0.0	0.0	0.0	0.0	0.0	0.0	0.0	0.0	0.0	0.0	0.0	0.0	0.0	145.86206896551727	0.0	0.05395494	-0.063049155	1.01830794	2.5484199999999997	0.21364	0.44254	3283867.0	1776544958.130659	0.0	1.0	-1.0	-1.0	-1.0	-1.0	-1.0	-1.0	-1.0	-1.0	0.0	marker	peace	Peace	24	0418
-68270.535	-55183.634999999995	-104553.54	-18433.35	0.0	0.0	0.0	0.0	0.0	0.0	0.0	0.0	0.0	0.0	0.0	0.0	0.0	0.0	145.86206896551727	0.0	0.05395494	-0.063049155	1.01830794	2.5484199999999997	0.21364	0.44254	3283868.0	1776544958.130685	0.0	1.0	-1.0	-1.0	-1.0	-1.0	-1.0	-1.0	-1.0	-1.0	0.0	marker	peace	Peace	24	0418
-68341.36499999999	-55168.829999999994	-104581.17	-18450.809999999998	0.0	0.0	0.0	0.0	0.0	0.0	0.0	0.0	0.0	0.0	0.0	0.0	0.0	0.0	145.86206896551727	0.0	0.05395494	-0.063049155	1.01830794	2.5484199999999997	0.21364	0.44254	3283869.0	1776544958.133308	0.0	1.0	-1.0	-1.0	-1.0	-1.0	-1.0	-1.0	-1.0	-1.0	0.0	marker	peace	Peace	24	0418
-68347.62	-55151.595	-104605.33499999999	-18475.245	0.0	0.0	0.0	0.0	0.0	0.0	0.0	0.0	0.0	0.0	0.0	0.0	0.0	0.0	145.86206896551727	0.0	0.05395494	-0.063049155	1.01830794	2.5484199999999997	0.21364	0.44254	3283870.0	1776544958.133326	0.0	1.0	-1.0	-1.0	-1.0	-1.0	-1.0	-1.0	-1.0	-1.0	0.0	marker	peace	Peace	24	0418
