ch_0	ch_1	ch_2	ch_3	ch_4	ch_5	ch_6	ch_7	ch_8	ch_9	ch_10	ch_11	ch_12	ch_13	ch_14	ch_15	ch_16	ch_17	ch_18	ch_19	ch_20	ch_21	ch_22	ch_23	ch_24	ch_25	ch_26	timestamp	marker	ch_29	ch_30	ch_31	ch_32	ch_33	ch_34	ch_35	ch_36	ch_37	ch_38	MarkerColumn	GestureLabel	CueLabel	SampleNumber	CollectionDate
-68578.875	-55283.354999999996	-104778.26999999999	-18536.219999999998	0.0	0.0	0.0	0.0	0.0	0.0	0.0	0.0	0.0	0.0	0.0	0.0	0.0	0.0	146.0	0.0	0.03002922	-0.04968249	1.02709698	4.6085199999999995	-1.25132	0.25942	3293831.0	1776544978.125699	5.0	1.0	-1.0	-1.0	-1.0	-1.0	-1.0	-1.0	-1.0	-1.0	0.0	marker	peace	Peace	26	0418
-68540.265	-55277.189999999995	-104743.44	-18511.02	0.0	0.0	0.0	0.0	0.0	0.0	0.0	0.0	0.0	0.0	0.0	0.0	0.0	0.0	146.0	0.0	0.03002922	-0.04968249	1.02709698	4.6085199999999995	-1.25132	0.25942	3293832.0	1776544978.125719	0.0	1.0	-1.0	-1.0	-1.0	-1.0	-1.0	-1.0	-1.0	-1.0	0.0	marker	peace	Peace	26	0418
-68517.675	-55304.685	-104720.08499999999	-18497.745	0.0	0.0	0.0	0.0	0.0	0.0	0.0	0.0	0.0	0.0	0.0	0.0	0.0	0.0	146.0	0.0	0.027160575	-0.054626325	1.03063701	4.4254	-2.5179	-1.51074	3293833.0	1776544978.129628	0.0	1.0	-1.0	-1.0	-1.0	-1.0	-1.0	-1.0	-1.0	-1.0	0.0	marker	peace	Peace	26	0418
-68507.81999999999	-55308.42	-104746.815	-18513.54	0.0	0.0	0.0	0.0	0.0	0.0	0.0	0.0	0.0	0.0	0.0	0.0	0.0	0.0	146.0	0.0	0.027160575	-0.054626325	1.03063701	4.4254	-2.5179	-1.51074	3293834.0	1776544978.129644	0.0	1.0	-1.0	-1.0	-1.0	-1.0	-1.0	-1.0	-1.0	-1.0	0.0	marker	peace	Peace	26	0418
-68498.235	-55308.869999999995	-104742.9	-18489.735	0.0	0.0	0.0	0.0	0.0	0.0	0.0	0.0	0.0	0.0	0.0	0.0	0.0	0.0	146.0	0.0	0.027160575	-0.054626325	1.03063701	4.4254	-2.5179	-1.51074	3293835.0	1776544978.133615	0.0	1.0	-1.0	-1.0	-1.0	-1.0	-1.0	-1.0	-1.0	-1.0	0.0	marker	peace	Peace	26	0418
-68629.59	-55329.39	-104859.18	-18608.985	0.0	0.0	0.0	0.0	0.0	0.0	0.0	0.0	0.0	0.0	0.0	0.0	0.0	0.0	146.0	0.0	0.027160575	-0.054626325	1.03063701	4.4254	-2.5179	-1.51074	3293836.0	1776544978.13363	0.0	1.0	-1.0	-1.0	-1.0	-1.0	-1.0	-1.0	-1.0	-1.0	0.0	marker	peace	Peace	26	0418
-68649.705	-55341.674999999996	-104857.69499999999	-18597.645	0.0	0.0	0.0	0.0	0.0	0.0	0.0	0.0	0.0	0.0	0.0	0.0	0.0	0.0	146.0	0.0	0.027160575	-0.054626325	1.03063701	4.4254	-2.5179	-1.51074	3293837.0	1776544978.137587	0.0	1.0	-1.0	-1.0	-1.0	-1.0	-1.0	-1.0	-1.0	-1.0	0.0	marker	peace	Peace	26	0418
-68626.17	-55353.195	-104841.675	-18584.64	0.0	0.0	0.0	0.0	0.0	0.0	0.0	0.0	0.0	0.0	0.0	0.0	0.0	0.0	146.0	0.0	0.027160575	-0.054626325	1.03063701	4.4254	-2.5179	-1.51074	3293838.0	1776544978.137603	0.0	1.0	-1.0	-1.0	-1.0	-1.0	-1.0	-1.0	-1.0	-1.0	0.0	marker	peace	Peace	26	0418
-68580.045	-55366.335	-104813.055	-18588.105	0.0	0.0	0.0	0.0	0.0	0.0	0.0	0.0	0.0	0.0	0.0	0.0	0.0	0.0	146.0	0.0	0.027160575	-0.054626325	1.03063701	4.4254	-2.5179	-1.51074	3293839.0	1776544978.143089	0.0	1.0	-1.0	-1.0	-1.0	-1.0	-1.0	-1.0	-1.0	-1.0	0.0	marker	peace	Peace	26	0418
-68570.595	-55369.53	-104790.015	-18580.77	0.0	0.0	0.0	0.0	0.0	0.0	0.0	0.0	0.0	0.0	0.0	0.0	0.0	0.0	146.0	0.0	0.027160575	-0.054626325	1.03063701	4.4254	-2.5179	-1.51074	3293840.0	1776544978.143105	0.0	1.0	-1.0	-1.0	-1.0	-1.0	-1.0	-1.0	-1.0	-1.0	0.0	marker	peace	Peace	26	0418
-68565.33	-55368.54	-104779.935	-18564.57	0.0	0.0	0.0	0.0	0.0	0.0	0.0	0.0	0.0	0.0	0.0	0.0	0.0	0.0	146.0	0.0	0.027160575	-0.054626325	1.03063701	4.4254	-2.5179	-1.51074	3293841.0	1776544978.145605	0.0	1.0	-1.0	-1.0	-1.0	-1.0	-1.0	-1.0	-1.0	-1.0	0.0	marker	peace	Peace	26	0418
-68581.305	-55366.875	-104773.14	-18526.454999999998	0.0	0.0	0.0	0.0	0.0	0.0	0.0	0.0	0.0	0.0	0.0	0.0	0.0	0.0	146.0	0.0	0.027160575	-0.054626325	1.03063701	4.4254	-2.5179	-1.51074	3293842.0	1776544978.145608	0.0	1.0	-1.0	-1.0	-1.0	-1.0	-1.0	-1.0	-1.0	-1.0	0.0	marker	peace	Peace	26	0418
-68576.84999999999	-55361.61	-104799.06	-18546.48	0.0	0.0	0.0	0.0	0.0	0.0	0.0	0.0	0.0	0.0	0.0	0.0	0.0	0.0	146.0	0.0	0.034240635	-0.064147785	1.012509615	7.66052	-1.00716	-4.18124	3293843.0	1776544978.149667	0.0	1.0	-1.0	-1.0	-1.0	-1.0	-1.0	-1.0	-1.0	-1.0	0.0	marker	peace	Peace	26	0418
-68565.42	-55361.115	-104796.94499999999	-18552.69	0.0	0.0	0.0	0.0	0.0	0.0	0.0	0.0	0.0	0.0	0.0	0.0	0.0	0.0	146.0	0.0	0.034240635	-0.064147785	1.012509615	7.66052	-1.00716	-4.18124	3293844.0	1776544978.149682	0.0	1.0	-1.0	-1.0	-1.0	-1.0	-1.0	-1.0	-1.0	-1.0	0.0	marker	peace	Peace	26	0418
-68565.105	-55361.61	-104784.705	-18530.954999999998	0.0	0.0	0.0	0.0	0.0	0.0	0.0	0.0	0.0	0.0	0.0	0.0	0.0	0.0	146.0	0.0	0.034240635	-0.064147785	1.012509615	7.66052	-1.00716	-4.18124	3293845.0	1776544978.153641	0.0	1.0	-1.0	-1.0	-1.0	-1.0	-1.0	-1.0	-1.0	-1.0	0.0	marker	peace	Peace	26	0418
-68579.28	-55359.945	-104798.51999999999	-18543.555	0.0	0.0	0.0	0.0	0.0	0.0	0.0	0.0	0.0	0.0	0.0	0.0	0.0	0.0	146.0	0.0	0.034240635	-0.064147785	1.012509615	7.66052	-1.00716	-4.18124	3293846.0	1776544978.153656	0.0	1.0	-1.0	-1.0	-1.0	-1.0	-1.0	-1.0	-1.0	-1.0	0.0	marker	peace	Peace	26	0418
-68609.06999999999	-55366.695	-104814.18	-18571.5	0.0	0.0	0.0	0.0	0.0	0.0	0.0	0.0	0.0	0.0	0.0	0.0	0.0	0.0	146.0	0.0	0.034240635	-0.064147785	1.012509615	7.66052	-1.00716	-4.18124	3293847.0	1776544978.158664	0.0	1.0	-1.0	-1.0	-1.0	-1.0	-1.0	-1.0	-1.0	-1.0	0.0	marker	peace	Peace	26	0418
-68607.675	-55380.104999999996	-104841.26999999999	-18576.945	0.0	0.0	0.0	0.0	0.0	0.0	0.0	0.0	0.0	0.0	0.0	0.0	0.0	0.0	146.0	0.0	0.034240635	-0.064147785	1.012509615	7.66052	-1.00716	-4.18124	3293848.0	1776544978.158681	0.0	1.0	-1.0	-1.0	-1.0	-1.0	-1.0	-1.0	-1.0	-1.0	0.0	marker	peace	Peace	26	0418
-68573.97	-55384.65	-104801.985	-18553.59	0.0	0.0	0.0	0.0	0.0	0.0	0.0	0.0	0.0	0.0	0.0	0.0	0.0	0.0	146.0	0.0	0.034240635	-0.064147785	1.012509615	7.66052	-1.00716	-4.18124	3293849.0	1776544978.16179	0.0	1.0	-1.0	-1.0	-1.0	-1.0	-1.0	-1.0	-1.0	-1.0	0.0	marker	peace	Peace	26	0418
-68579.81999999999	-55371.509999999995	-104768.73	-18556.335	0.0	0.0	0.0	0.0	0.0	0.0	0.0	0.0	0.0	0.0	0.0	0.0	0.0	0.0	146.0	0.0	0.034240635	-0.064147785	1.012509615	7.66052	-1.00716	-4.18124	3293850.0	1776544978.161805	0.0	1.0	-1.0	-1.0	-1.0	-1.0	-1.0	-1.0	-1.0	-1.0	0.0	marker	peace	Peace	26	0418
-68587.83	-55354.545	-104781.19499999999	-18567.63	0.0	0.0	0.0	0.0	0.0	0.0	0.0	0.0	0.0	0.0	0.0	0.0	0.0	0.0	146.0	0.0	0.034240635	-0.064147785	1.012509615	7.66052	-1.00716	-4.18124	3293851.0	1776544978.165737	0.0	1.0	-1.0	-1.0	-1.0	-1.0	-1.0	-1.0	-1.0	-1.0	0.0	marker	peace	Peace	26	0418
-68551.605	-55334.655	-104730.03	-18505.17	0.0	0.0	0.0	0.0	0.0	0.0	0.0	0.0	0.0	0.0	0.0	0.0	0.0	0.0	146.0	0.0	0.034240635	-0.064147785	1.012509615	7.66052	-1.00716	-4.18124	3293852.0	1776544978.165754	0.0	1.0	-1.0	-1.0	-1.0	-1.0	-1.0	-1.0	-1.0	-1.0	0.0	marker	peace	Peace	26	0418
-68550.20999999999	-55321.335	-104743.70999999999	-18483.795	0.0	0.0	0.0	0.0	0.0	0.0	0.0	0.0	0.0	0.0	0.0	0.0	0.0	0.0	146.0	0.0	0.03942861	-0.05383287	1.00536852	6.76018	0.06104	-2.19744	3293853.0	1776544978.172618	0.0	1.0	-1.0	-1.0	-1.0	-1.0	-1.0	-1.0	-1.0	-1.0	0.0	marker	peace	Peace	26	0418
-68543.145	-55324.979999999996	-104750.81999999999	-18495.495	0.0	0.0	0.0	0.0	0.0	0.0	0.0	0.0	0.0	0.0	0.0	0.0	0.0	0.0	146.0	0.0	0.03942861	-0.05383287	1.00536852	6.76018	0.06104	-2.19744	3293854.0	1776544978.172633	0.0	1.0	-1.0	-1.0	-1.0	-1.0	-1.0	-1.0	-1.0	-1.0	0.0	marker	peace	Peace	26	0418
-68544.27	-55339.515	-104739.84	-18492.03	0.0	0.0	0.0	0.0	0.0	0.0	0.0	0.0	0.0	0.0	0.0	0.0	0.0	0.0	146.0	0.0	0.03942861	-0.05383287	1.00536852	6.76018	0.06104	-2.19744	3293855.0	1776544978.173646	0.0	1.0	-1.0	-1.0	-1.0	-1.0	-1.0	-1.0	-1.0	-1.0	0.0	marker	peace	Peace	26	0418
-68579.91	-55348.784999999996	-104766.165	-18511.515	0.0	0.0	0.0	0.0	0.0	0.0	0.0	0.0	0.0	0.0	0.0	0.0	0.0	0.0	146.0	0.0	0.03942861	-0.05383287	1.00536852	6.76018	0.06104	-2.19744	3293856.0	1776544978.173663	0.0	1.0	-1.0	-1.0	-1.0	-1.0	-1.0	-1.0	-1.0	-1.0	0.0	marker	peace	Peace	26	0418
-68578.965	-55355.445	-104804.955	-18559.305	0.0	0.0	0.0	0.0	0.0	0.0	0.0	0.0	0.0	0.0	0.0	0.0	0.0	0.0	146.0	0.0	0.03942861	-0.05383287	1.00536852	6.76018	0.06104	-2.19744	3293857.0	1776544978.177653	0.0	1.0	-1.0	-1.0	-1.0	-1.0	-1.0	-1.0	-1.0	-1.0	0.0	marker	peace	Peace	26	0418
-68517.72	-55357.875	-104774.44499999999	-18520.965	0.0	0.0	0.0	0.0	0.0	0.0	0.0	0.0	0.0	0.0	0.0	0.0	0.0	0.0	146.0	0.0	0.03942861	-0.05383287	1.00536852	6.76018	0.06104	-2.19744	3293858.0	1776544978.177669	0.0	1.0	-1.0	-1.0	-1.0	-1.0	-1.0	-1.0	-1.0	-1.0	0.0	marker	peace	Peace	26	0418
-68551.065	-55355.085	-104796.315	-18537.75	0.0	0.0	0.0	0.0	0.0	0.0	0.0	0.0	0.0	0.0	0.0	0.0	0.0	0.0	146.0	0.0	0.03942861	-0.05383287	1.00536852	6.76018	0.06104	-2.19744	3293859.0	1776544978.181852	0.0	1.0	-1.0	-1.0	-1.0	-1.0	-1.0	-1.0	-1.0	-1.0	0.0	marker	peace	Peace	26	0418
-68519.565	-55352.204999999994	-104748.165	-18494.91	0.0	0.0	0.0	0.0	0.0	0.0	0.0	0.0	0.0	0.0	0.0	0.0	0.0	0.0	146.0	0.0	0.03942861	-0.05383287	1.00536852	6.76018	0.06104	-2.19744	3293860.0	1776544978.181868	0.0	1.0	-1.0	-1.0	-1.0	-1.0	-1.0	-1.0	-1.0	-1.0	0.0	marker	peace	Peace	26	0418
-68530.31999999999	-55355.805	-104766.165	-18524.43	0.0	0.0	0.0	0.0	0.0	0.0	0.0	0.0	0.0	0.0	0.0	0.0	0.0	0.0	146.0	0.0	0.03942861	-0.05383287	1.00536852	6.76018	0.06104	-2.19744	3293861.0	1776544978.186124	0.0	1.0	-1.0	-1.0	-1.0	-1.0	-1.0	-1.0	-1.0	-1.0	0.0	marker	peace	Peace	26	0418
-68638.31999999999	-55365.57	-104878.17	-18623.565	0.0	0.0	0.0	0.0	0.0	0.0	0.0	0.0	0.0	0.0	0.0	0.0	0.0	0.0	146.0	0.0	0.03942861	-0.05383287	1.00536852	6.76018	0.06104	-2.19744	3293862.0	1776544978.186139	0.0	1.0	-1.0	-1.0	-1.0	-1.0	-1.0	-1.0	-1.0	-1.0	0.0	marker	peace	Peace	26	0418
-68655.105	-55367.865	-104856.795	-18607.05	0.0	0.0	0.0	0.0	0.0	0.0	0.0	0.0	0.0	0.0	0.0	0.0	0.0	0.0	146.0	0.0	0.032409585	-0.033264075	1.014340665	4.3338399999999995	0.97664	2.3042599999999998	3293863.0	1776544978.190856	0.0	1.0	-1.0	-1.0	-1.0	-1.0	-1.0	-1.0	-1.0	-1.0	0.0	marker	peace	Peace	26	0418
-68612.04	-55367.954999999994	-104804.14499999999	-18568.844999999998	0.0	0.0	0.0	0.0	0.0	0.0	0.0	0.0	0.0	0.0	0.0	0.0	0.0	0.0	146.0	0.0	0.032409585	-0.033264075	1.014340665	4.3338399999999995	0.97664	2.3042599999999998	3293864.0	1776544978.190883	0.0	1.0	-1.0	-1.0	-1.0	-1.0	-1.0	-1.0	-1.0	-1.0	0.0	marker	peace	Peace	26	0418
-68607.495	-55370.655	-104795.685	-18552.465	0.0	0.0	0.0	0.0	0.0	0.0	0.0	0.0	0.0	0.0	0.0	0.0	0.0	0.0	146.0	0.0	0.032409585	-0.033264075	1.014340665	4.3338399999999995	0.97664	2.3042599999999998	3293865.0	1776544978.193737	0.0	1.0	-1.0	-1.0	-1.0	-1.0	-1.0	-1.0	-1.0	-1.0	0.0	marker	peace	Peace	26	0418
-68612.58	-55375.92	-104834.83499999999	-18571.14	0.0	0.0	0.0	0.0	0.0	0.0	0.0	0.0	0.0	0.0	0.0	0.0	0.0	0.0	146.0	0.0	0.032409585	-0.033264075	1.014340665	4.3338399999999995	0.97664	2.3042599999999998	3293866.0	1776544978.193752	0.0	1.0	-1.0	-1.0	-1.0	-1.0	-1.0	-1.0	-1.0	-1.0	0.0	marker	peace	Peace	26	0418
-68575.05	-55382.265	-104823.22499999999	-18562.32	0.0	0.0	0.0	0.0	0.0	0.0	0.0	0.0	0.0	0.0	0.0	0.0	0.0	0.0	146.0	0.0	0.032409585	-0.033264075	1.014340665	4.3338399999999995	0.97664	2.3042599999999998	3293867.0	1776544978.205702	0.0	1.0	-1.0	-1.0	-1.0	-1.0	-1.0	-1.0	-1.0	-1.0	0.0	marker	peace	Peace	26	0418
-68560.47	-55380.689999999995	-104818.23	-18567.45	0.0	0.0	0.0	0.0	0.0	0.0	0.0	0.0	0.0	0.0	0.0	0.0	0.0	0.0	146.0	0.0	0.032409585	-0.033264075	1.014340665	4.3338399999999995	0.97664	2.3042599999999998	3293868.0	1776544978.205719	0.0	1.0	-1.0	-1.0	-1.0	-1.0	-1.0	-1.0	-1.0	-1.0	0.0	marker	peace	Peace	26	0418
-68610.465	-55384.829999999994	-104852.43	-18603.135	0.0	0.0	0.0	0.0	0.0	0.0	0.0	0.0	0.0	0.0	0.0	0.0	0.0	0.0	146.0	0.0	0.032409585	-0.033264075	1.014340665	4.3338399999999995	0.97664	2.3042599999999998	3293869.0	1776544978.206206	0.0	1.0	-1.0	-1.0	-1.0	-1.0	-1.0	-1.0	-1.0	-1.0	0.0	marker	peace	Peace	26	0418
-68617.08	-55381.049999999996	-104831.86499999999	-18591.524999999998	0.0	0.0	0.0	0.0	0.0	0.0	0.0	0.0	0.0	0.0	0.0	0.0	0.0	0.0	146.0	0.0	0.032409585	-0.033264075	1.014340665	4.3338399999999995	0.97664	2.3042599999999998	3293870.0	1776544978.206211	0.0	1.0	-1.0	-1.0	-1.0	-1.0	-1.0	-1.0	-1.0	-1.0	0.0	marker	peace	Peace	26	0418
-68579.505	-55384.56	-104801.58	-18566.73	0.0	0.0	0.0	0.0	0.0	0.0	0.0	0.0	0.0	0.0	0.0	0.0	0.0	0.0	146.0	0.0	0.032409585	-0.033264075	1.014340665	4.3338399999999995	0.97664	2.3042599999999998	3293871.0	1776544978.206218	0.0	1.0	-1.0	-1.0	-1.0	-1.0	-1.0	-1.0	-1.0	-1.0	0.0	marker	peace	Peace	26	0418
-68548.68	-55387.35	-104792.12999999999	-18546.885	0.0	0.0	0.0	0.0	0.0	0.0	0.0	0.0	0.0	0.0	0.0	0.0	0.0	0.0	146.0	0.0	0.032409585	-0.033264075	1.014340665	4.3338399999999995	0.97664	2.3042599999999998	3293872.0	1776544978.206223	0.0	1.0	-1.0	-1.0	-1.0	-1.0	-1.0	-1.0	-1.0	-1.0	0.0	marker	peace	Peace	26	0418
-68562.54	-55387.395	-104789.295	-18537.03	0.0	0.0	0.0	0.0	0.0	0.0	0.0	0.0	0.0	0.0	0.0	0.0	0.0	0.0	146.0	0.0	0.03247062	-0.027770925000000002	1.01403549	1.51074	-0.12208	-0.8392999999999999	3293873.0	1776544978.213963	0.0	1.0	-1.0	-1.0	-1.0	-1.0	-1.0	-1.0	-1.0	-1.0	0.0	marker	peace	Peace	26	0418
-68588.505	-55391.04	-104792.12999999999	-18543.059999999998	0.0	0.0	0.0	0.0	0.0	0.0	0.0	0.0	0.0	0.0	0.0	0.0	0.0	0.0	146.0	0.0	0.03247062	-0.027770925000000002	1.01403549	1.51074	-0.12208	-0.8392999999999999	3293874.0	1776544978.213978	0.0	1.0	-1.0	-1.0	-1.0	-1.0	-1.0	-1.0	-1.0	-1.0	0.0	marker	peace	Peace	26	0418
-68572.53	-55397.115	-104792.625	-18551.34	0.0	0.0	0.0	0.0	0.0	0.0	0.0	0.0	0.0	0.0	0.0	0.0	0.0	0.0	146.0	0.0	0.03247062	-0.027770925000000002	1.01403549	1.51074	-0.12208	-0.8392999999999999	3293875.0	1776544978.21592	0.0	1.0	-1.0	-1.0	-1.0	-1.0	-1.0	-1.0	-1.0	-1.0	0.0	marker	peace	Peace	26	0418
-68523.93	-55397.924999999996	-104756.12999999999	-18517.905	0.0	0.0	0.0	0.0	0.0	0.0	0.0	0.0	0.0	0.0	0.0	0.0	0.0	0.0	146.0	0.0	0.03247062	-0.027770925000000002	1.01403549	1.51074	-0.12208	-0.8392999999999999	3293876.0	1776544978.215935	0.0	1.0	-1.0	-1.0	-1.0	-1.0	-1.0	-1.0	-1.0	-1.0	0.0	marker	peace	Peace	26	0418
-68477.04	-55397.97	-104728.23	-18481.23	0.0	0.0	0.0	0.0	0.0	0.0	0.0	0.0	0.0	0.0	0.0	0.0	0.0	0.0	146.0	0.0	0.03247062	-0.027770925000000002	1.01403549	1.51074	-0.12208	-0.8392999999999999	3293877.0	1776544978.217826	0.0	1.0	-1.0	-1.0	-1.0	-1.0	-1.0	-1.0	-1.0	-1.0	0.0	marker	peace	Peace	26	0418
-68614.155	-55404.405	-104830.425	-18565.425	0.0	0.0	0.0	0.0	0.0	0.0	0.0	0.0	0.0	0.0	0.0	0.0	0.0	0.0	146.0	0.0	0.03247062	-0.027770925000000002	1.01403549	1.51074	-0.12208	-0.8392999999999999	3293878.0	1776544978.217842	0.0	1.0	-1.0	-1.0	-1.0	-1.0	-1.0	-1.0	-1.0	-1.0	0.0	marker	peace	Peace	26	0418
-68643.81	-55414.395	-104855.58	-18600.704999999998	0.0	0.0	0.0	0.0	0.0	0.0	0.0	0.0	0.0	0.0	0.0	0.0	0.0	0.0	146.0	0.0	0.03247062	-0.027770925000000002	1.01403549	1.51074	-0.12208	-0.8392999999999999	3293879.0	1776544978.225866	0.0	1.0	-1.0	-1.0	-1.0	-1.0	-1.0	-1.0	-1.0	-1.0	0.0	marker	peace	Peace	26	0418
-68588.37	-55413.18	-104800.00499999999	-18567.27	0.0	0.0	0.0	0.0	0.0	0.0	0.0	0.0	0.0	0.0	0.0	0.0	0.0	0.0	146.0	0.0	0.03247062	-0.027770925000000002	1.01403549	1.51074	-0.12208	-0.8392999999999999	3293880.0	1776544978.225882	0.0	1.0	-1.0	-1.0	-1.0	-1.0	-1.0	-1.0	-1.0	-1.0	0.0	marker	peace	Peace	26	0418
-68558.04	-55416.42	-104771.205	-18537.975	0.0	0.0	0.0	0.0	0.0	0.0	0.0	0.0	0.0	0.0	0.0	0.0	0.0	0.0	146.0	0.0	0.03247062	-0.027770925000000002	1.01403549	1.51074	-0.12208	-0.8392999999999999	3293881.0	1776544978.230005	0.0	1.0	-1.0	-1.0	-1.0	-1.0	-1.0	-1.0	-1.0	-1.0	0.0	marker	peace	Peace	26	0418
-68539.095	-55427.4	-104754.33	-18511.245	0.0	0.0	0.0	0.0	0.0	0.0	0.0	0.0	0.0	0.0	0.0	0.0	0.0	0.0	146.0	0.0	0.03247062	-0.027770925000000002	1.01403549	1.51074	-0.12208	-0.8392999999999999	3293882.0	1776544978.230022	0.0	1.0	-1.0	-1.0	-1.0	-1.0	-1.0	-1.0	-1.0	-1.0	0.0	marker	peace	Peace	26	0418
-68546.34	-55426.454999999994	-104771.925	-18518.715	0.0	0.0	0.0	0.0	0.0	0.0	0.0	0.0	0.0	0.0	0.0	0.0	0.0	0.0	146.0	0.0	0.044494515	-0.035583405	1.009213725	1.8617199999999998	1.15976	0.9308599999999999	3293883.0	1776544978.237357	0.0	1.0	-1.0	-1.0	-1.0	-1.0	-1.0	-1.0	-1.0	-1.0	0.0	marker	peace	Peace	26	0418
-68613.705	-55420.47	-104837.355	-18582.39	0.0	0.0	0.0	0.0	0.0	0.0	0.0	0.0	0.0	0.0	0.0	0.0	0.0	0.0	146.0	0.0	0.044494515	-0.035583405	1.009213725	1.8617199999999998	1.15976	0.9308599999999999	3293884.0	1776544978.237373	0.0	1.0	-1.0	-1.0	-1.0	-1.0	-1.0	-1.0	-1.0	-1.0	0.0	marker	peace	Peace	26	0418
-68601.105	-55411.47	-104814.62999999999	-18577.305	0.0	0.0	0.0	0.0	0.0	0.0	0.0	0.0	0.0	0.0	0.0	0.0	0.0	0.0	146.0	0.0	0.044494515	-0.035583405	1.009213725	1.8617199999999998	1.15976	0.9308599999999999	3293885.0	1776544978.243072	0.0	1.0	-1.0	-1.0	-1.0	-1.0	-1.0	-1.0	-1.0	-1.0	0.0	marker	peace	Peace	26	0418
-68602.005	-55412.64	-104812.78499999999	-18578.25	0.0	0.0	0.0	0.0	0.0	0.0	0.0	0.0	0.0	0.0	0.0	0.0	0.0	0.0	146.0	0.0	0.044494515	-0.035583405	1.009213725	1.8617199999999998	1.15976	0.9308599999999999	3293886.0	1776544978.243088	0.0	1.0	-1.0	-1.0	-1.0	-1.0	-1.0	-1.0	-1.0	-1.0	0.0	marker	peace	Peace	26	0418
-68564.88	-55408.049999999996	-104773.5	-18551.34	0.0	0.0	0.0	0.0	0.0	0.0	0.0	0.0	0.0	0.0	0.0	0.0	0.0	0.0	146.0	0.0	0.044494515	-0.035583405	1.009213725	1.8617199999999998	1.15976	0.9308599999999999	3293887.0	1776544978.243106	0.0	1.0	-1.0	-1.0	-1.0	-1.0	-1.0	-1.0	-1.0	-1.0	0.0	marker	peace	Peace	26	0418
-68539.635	-55396.079999999994	-104739.885	-18504.54	0.0	0.0	0.0	0.0	0.0	0.0	0.0	0.0	0.0	0.0	0.0	0.0	0.0	0.0	146.0	0.0	0.044494515	-0.035583405	1.009213725	1.8617199999999998	1.15976	0.9308599999999999	3293888.0	1776544978.243113	0.0	1.0	-1.0	-1.0	-1.0	-1.0	-1.0	-1.0	-1.0	-1.0	0.0	marker	peace	Peace	26	0418
-68587.515	-55392.479999999996	-104773.76999999999	-18555.57	0.0	0.0	0.0	0.0	0.0	0.0	0.0	0.0	0.0	0.0	0.0	0.0	0.0	0.0	146.0	0.0	0.044494515	-0.035583405	1.009213725	1.8617199999999998	1.15976	0.9308599999999999	3293889.0	1776544978.243121	0.0	1.0	-1.0	-1.0	-1.0	-1.0	-1.0	-1.0	-1.0	-1.0	0.0	marker	peace	Peace	26	0418
-68584.185	-55393.74	-104744.51999999999	-18540.855	0.0	0.0	0.0	0.0	0.0	0.0	0.0	0.0	0.0	0.0	0.0	0.0	0.0	0.0	146.0	0.0	0.044494515	-0.035583405	1.009213725	1.8617199999999998	1.15976	0.9308599999999999	3293890.0	1776544978.243128	0.0	1.0	-1.0	-1.0	-1.0	-1.0	-1.0	-1.0	-1.0	-1.0	0.0	marker	peace	Peace	26	0418
-68544.27	-55393.74	-104750.325	-18511.245	0.0	0.0	0.0	0.0	0.0	0.0	0.0	0.0	0.0	0.0	0.0	0.0	0.0	0.0	146.0	0.0	0.044494515	-0.035583405	1.009213725	1.8617199999999998	1.15976	0.9308599999999999	3293891.0	1776544978.245859	0.0	1.0	-1.0	-1.0	-1.0	-1.0	-1.0	-1.0	-1.0	-1.0	0.0	marker	peace	Peace	26	0418
-68576.985	-55397.79	-104825.87999999999	-18557.1	0.0	0.0	0.0	0.0	0.0	0.0	0.0	0.0	0.0	0.0	0.0	0.0	0.0	0.0	146.0	0.0	0.044494515	-0.035583405	1.009213725	1.8617199999999998	1.15976	0.9308599999999999	3293892.0	1776544978.245874	0.0	1.0	-1.0	-1.0	-1.0	-1.0	-1.0	-1.0	-1.0	-1.0	0.0	marker	peace	Peace	26	0418
-68608.755	-55406.52	-104849.595	-18581.445	0.0	0.0	0.0	0.0	0.0	0.0	0.0	0.0	0.0	0.0	0.0	0.0	0.0	0.0	146.0	0.0	0.03698721	-0.037536525	1.018368975	1.3734	0.44254	0.48832	3293893.0	1776544978.251199	0.0	1.0	-1.0	-1.0	-1.0	-1.0	-1.0	-1.0	-1.0	-1.0	0.0	marker	peace	Peace	26	0418
-68588.775	-55404.854999999996	-104809.185	-18565.829999999998	0.0	0.0	0.0	0.0	0.0	0.0	0.0	0.0	0.0	0.0	0.0	0.0	0.0	0.0	146.0	0.0	0.03698721	-0.037536525	1.018368975	1.3734	0.44254	0.48832	3293894.0	1776544978.251214	0.0	1.0	-1.0	-1.0	-1.0	-1.0	-1.0	-1.0	-1.0	-1.0	0.0	marker	peace	Peace	26	0418
-68579.09999999999	-55409.715	-104801.625	-18553.905	0.0	0.0	0.0	0.0	0.0	0.0	0.0	0.0	0.0	0.0	0.0	0.0	0.0	0.0	146.0	0.0	0.03698721	-0.037536525	1.018368975	1.3734	0.44254	0.48832	3293895.0	1776544978.253991	0.0	1.0	-1.0	-1.0	-1.0	-1.0	-1.0	-1.0	-1.0	-1.0	0.0	marker	peace	Peace	26	0418
-68557.86	-55419.39	-104792.04	-18545.805	0.0	0.0	0.0	0.0	0.0	0.0	0.0	0.0	0.0	0.0	0.0	0.0	0.0	0.0	146.0	0.0	0.03698721	-0.037536525	1.018368975	1.3734	0.44254	0.48832	3293896.0	1776544978.254007	0.0	1.0	-1.0	-1.0	-1.0	-1.0	-1.0	-1.0	-1.0	-1.0	0.0	marker	peace	Peace	26	0418
-68567.04	-55424.07	-104768.09999999999	-18536.94	0.0	0.0	0.0	0.0	0.0	0.0	0.0	0.0	0.0	0.0	0.0	0.0	0.0	0.0	146.0	0.0	0.03698721	-0.037536525	1.018368975	1.3734	0.44254	0.48832	3293897.0	1776544978.257944	0.0	1.0	-1.0	-1.0	-1.0	-1.0	-1.0	-1.0	-1.0	-1.0	0.0	marker	peace	Peace	26	0418
-68594.31	-55437.479999999996	-104780.11499999999	-18542.114999999998	0.0	0.0	0.0	0.0	0.0	0.0	0.0	0.0	0.0	0.0	0.0	0.0	0.0	0.0	146.0	0.0	0.03698721	-0.037536525	1.018368975	1.3734	0.44254	0.48832	3293898.0	1776544978.257959	0.0	1.0	-1.0	-1.0	-1.0	-1.0	-1.0	-1.0	-1.0	-1.0	0.0	marker	peace	Peace	26	0418
-68570.86499999999	-55435.994999999995	-104779.39499999999	-18534.6	0.0	0.0	0.0	0.0	0.0	0.0	0.0	0.0	0.0	0.0	0.0	0.0	0.0	0.0	146.0	0.0	0.03698721	-0.037536525	1.018368975	1.3734	0.44254	0.48832	3293899.0	1776544978.262168	0.0	1.0	-1.0	-1.0	-1.0	-1.0	-1.0	-1.0	-1.0	-1.0	0.0	marker	peace	Peace	26	0418
-68538.645	-55421.28	-104751.045	-18512.73	0.0	0.0	0.0	0.0	0.0	0.0	0.0	0.0	0.0	0.0	0.0	0.0	0.0	0.0	146.0	0.0	0.03698721	-0.037536525	1.018368975	1.3734	0.44254	0.48832	3293900.0	1776544978.262184	0.0	1.0	-1.0	-1.0	-1.0	-1.0	-1.0	-1.0	-1.0	-1.0	0.0	marker	peace	Peace	26	0418
-68567.48999999999	-55415.295	-104797.70999999999	-18552.195	0.0	0.0	0.0	0.0	0.0	0.0	0.0	0.0	0.0	0.0	0.0	0.0	0.0	0.0	146.0	0.0	0.03698721	-0.037536525	1.018368975	1.3734	0.44254	0.48832	3293901.0	1776544978.266014	0.0	1.0	-1.0	-1.0	-1.0	-1.0	-1.0	-1.0	-1.0	-1.0	0.0	marker	peace	Peace	26	0418
-68591.43	-55421.055	-104827.68	-18568.755	0.0	0.0	0.0	0.0	0.0	0.0	0.0	0.0	0.0	0.0	0.0	0.0	0.0	0.0	146.0	0.0	0.03698721	-0.037536525	1.018368975	1.3734	0.44254	0.48832	3293902.0	1776544978.26603	0.0	1.0	-1.0	-1.0	-1.0	-1.0	-1.0	-1.0	-1.0	-1.0	0.0	marker	peace	Peace	26	0418
-68596.83	-55425.24	-104828.58	-18560.565	0.0	0.0	0.0	0.0	0.0	0.0	0.0	0.0	0.0	0.0	0.0	0.0	0.0	0.0	146.0	0.0	0.0292968	-0.033691320000000004	1.02392316	-0.09156	-0.5341	0.7019599999999999	3293903.0	1776544978.269978	0.0	1.0	-1.0	-1.0	-1.0	-1.0	-1.0	-1.0	-1.0	-1.0	0.0	marker	peace	Peace	26	0418
-68599.17	-55424.295	-104816.025	-18565.38	0.0	0.0	0.0	0.0	0.0	0.0	0.0	0.0	0.0	0.0	0.0	0.0	0.0	0.0	146.0	0.0	0.0292968	-0.033691320000000004	1.02392316	-0.09156	-0.5341	0.7019599999999999	3293904.0	1776544978.269994	0.0	1.0	-1.0	-1.0	-1.0	-1.0	-1.0	-1.0	-1.0	-1.0	0.0	marker	peace	Peace	26	0418
-68533.33499999999	-55424.924999999996	-104753.295	-18520.065	0.0	0.0	0.0	0.0	0.0	0.0	0.0	0.0	0.0	0.0	0.0	0.0	0.0	0.0	146.0	0.0	0.0292968	-0.033691320000000004	1.02392316	-0.09156	-0.5341	0.7019599999999999	3293905.0	1776544978.274025	0.0	1.0	-1.0	-1.0	-1.0	-1.0	-1.0	-1.0	-1.0	-1.0	0.0	marker	peace	Peace	26	0418
-68526.0	-55415.025	-104753.205	-18508.905	0.0	0.0	0.0	0.0	0.0	0.0	0.0	0.0	0.0	0.0	0.0	0.0	0.0	0.0	146.0	0.0	0.0292968	-0.033691320000000004	1.02392316	-0.09156	-0.5341	0.7019599999999999	3293906.0	1776544978.27404	0.0	1.0	-1.0	-1.0	-1.0	-1.0	-1.0	-1.0	-1.0	-1.0	0.0	marker	peace	Peace	26	0418
-68605.65	-55416.96	-104832.26999999999	-18563.715	0.0	0.0	0.0	0.0	0.0	0.0	0.0	0.0	0.0	0.0	0.0	0.0	0.0	0.0	146.0	0.0	0.0292968	-0.033691320000000004	1.02392316	-0.09156	-0.5341	0.7019599999999999	3293907.0	1776544978.280687	0.0	1.0	-1.0	-1.0	-1.0	-1.0	-1.0	-1.0	-1.0	-1.0	0.0	marker	peace	Peace	26	0418
-68548.14	-55401.299999999996	-104776.425	-18505.35	0.0	0.0	0.0	0.0	0.0	0.0	0.0	0.0	0.0	0.0	0.0	0.0	0.0	0.0	146.0	0.0	0.0292968	-0.033691320000000004	1.02392316	-0.09156	-0.5341	0.7019599999999999	3293908.0	1776544978.280702	0.0	1.0	-1.0	-1.0	-1.0	-1.0	-1.0	-1.0	-1.0	-1.0	0.0	marker	peace	Peace	26	0418
-68589.405	-55395.134999999995	-104812.875	-18550.17	0.0	0.0	0.0	0.0	0.0	0.0	0.0	0.0	0.0	0.0	0.0	0.0	0.0	0.0	146.0	0.0	0.0292968	-0.033691320000000004	1.02392316	-0.09156	-0.5341	0.7019599999999999	3293909.0	1776544978.281804	0.0	1.0	-1.0	-1.0	-1.0	-1.0	-1.0	-1.0	-1.0	-1.0	0.0	marker	peace	Peace	26	0418
-68635.53	-55391.625	-104842.17	-18586.844999999998	0.0	0.0	0.0	0.0	0.0	0.0	0.0	0.0	0.0	0.0	0.0	0.0	0.0	0.0	146.0	0.0	0.0292968	-0.033691320000000004	1.02392316	-0.09156	-0.5341	0.7019599999999999	3293910.0	1776544978.281821	0.0	1.0	-1.0	-1.0	-1.0	-1.0	-1.0	-1.0	-1.0	-1.0	0.0	marker	peace	Peace	26	0418
-68607.0	-55378.485	-104804.28	-18576.675	0.0	0.0	0.0	0.0	0.0	0.0	0.0	0.0	0.0	0.0	0.0	0.0	0.0	0.0	146.0	0.0	0.0292968	-0.033691320000000004	1.02392316	-0.09156	-0.5341	0.7019599999999999	3293911.0	1776544978.286944	0.0	1.0	-1.0	-1.0	-1.0	-1.0	-1.0	-1.0	-1.0	-1.0	0.0	marker	peace	Peace	26	0418
-68574.87	-55369.395	-104780.295	-18543.51	0.0	0.0	0.0	0.0	0.0	0.0	0.0	0.0	0.0	0.0	0.0	0.0	0.0	0.0	146.0	0.0	0.0292968	-0.033691320000000004	1.02392316	-0.09156	-0.5341	0.7019599999999999	3293912.0	1776544978.286959	0.0	1.0	-1.0	-1.0	-1.0	-1.0	-1.0	-1.0	-1.0	-1.0	0.0	marker	peace	Peace	26	0418
-68547.645	-55373.759999999995	-104772.23999999999	-18529.695	0.0	0.0	0.0	0.0	0.0	0.0	0.0	0.0	0.0	0.0	0.0	0.0	0.0	0.0	146.0	0.0	0.035583405	-0.042907605	1.020566235	1.4497	-0.15259999999999999	0.12208	3293913.0	1776544978.289992	0.0	1.0	-1.0	-1.0	-1.0	-1.0	-1.0	-1.0	-1.0	-1.0	0.0	marker	peace	Peace	26	0418
-68583.87	-55426.095	-104791.14	-18547.469999999998	0.0	0.0	0.0	0.0	0.0	0.0	0.0	0.0	0.0	0.0	0.0	0.0	0.0	0.0	146.0	0.0	0.035583405	-0.042907605	1.020566235	1.4497	-0.15259999999999999	0.12208	3293914.0	1776544978.29002	0.0	1.0	-1.0	-1.0	-1.0	-1.0	-1.0	-1.0	-1.0	-1.0	0.0	marker	peace	Peace	26	0418
-68613.39	-55471.68	-104813.64	-18561.329999999998	0.0	0.0	0.0	0.0	0.0	0.0	0.0	0.0	0.0	0.0	0.0	0.0	0.0	0.0	146.0	0.0	0.035583405	-0.042907605	1.020566235	1.4497	-0.15259999999999999	0.12208	3293915.0	1776544978.294583	0.0	1.0	-1.0	-1.0	-1.0	-1.0	-1.0	-1.0	-1.0	-1.0	0.0	marker	peace	Peace	26	0418
-68590.305	-55470.555	-104808.69	-18560.88	0.0	0.0	0.0	0.0	0.0	0.0	0.0	0.0	0.0	0.0	0.0	0.0	0.0	0.0	146.0	0.0	0.035583405	-0.042907605	1.020566235	1.4497	-0.15259999999999999	0.12208	3293916.0	1776544978.294606	0.0	1.0	-1.0	-1.0	-1.0	-1.0	-1.0	-1.0	-1.0	-1.0	0.0	marker	peace	Peace	26	0418
-68557.185	-55459.439999999995	-104768.86499999999	-18536.399999999998	0.0	0.0	0.0	0.0	0.0	0.0	0.0	0.0	0.0	0.0	0.0	0.0	0.0	0.0	146.0	0.0	0.035583405	-0.042907605	1.020566235	1.4497	-0.15259999999999999	0.12208	3293917.0	1776544978.298042	0.0	1.0	-1.0	-1.0	-1.0	-1.0	-1.0	-1.0	-1.0	-1.0	0.0	marker	peace	Peace	26	0418
-68545.89	-55450.17	-104757.20999999999	-18522.18	0.0	0.0	0.0	0.0	0.0	0.0	0.0	0.0	0.0	0.0	0.0	0.0	0.0	0.0	146.0	0.0	0.035583405	-0.042907605	1.020566235	1.4497	-0.15259999999999999	0.12208	3293918.0	1776544978.298062	0.0	1.0	-1.0	-1.0	-1.0	-1.0	-1.0	-1.0	-1.0	-1.0	0.0	marker	peace	Peace	26	0418
-68566.905	-55443.555	-104806.8	-18541.215	0.0	0.0	0.0	0.0	0.0	0.0	0.0	0.0	0.0	0.0	0.0	0.0	0.0	0.0	146.0	0.0	0.035583405	-0.042907605	1.020566235	1.4497	-0.15259999999999999	0.12208	3293919.0	1776544978.302165	0.0	1.0	-1.0	-1.0	-1.0	-1.0	-1.0	-1.0	-1.0	-1.0	0.0	marker	peace	Peace	26	0418
-68602.23	-55426.814999999995	-104831.86499999999	-18579.195	0.0	0.0	0.0	0.0	0.0	0.0	0.0	0.0	0.0	0.0	0.0	0.0	0.0	0.0	146.0	0.0	0.035583405	-0.042907605	1.020566235	1.4497	-0.15259999999999999	0.12208	3293920.0	1776544978.302189	0.0	1.0	-1.0	-1.0	-1.0	-1.0	-1.0	-1.0	-1.0	-1.0	0.0	marker	peace	Peace	26	0418
-68617.755	-55431.54	-104831.055	-18593.82	0.0	0.0	0.0	0.0	0.0	0.0	0.0	0.0	0.0	0.0	0.0	0.0	0.0	0.0	146.0	0.0	0.035583405	-0.042907605	1.020566235	1.4497	-0.15259999999999999	0.12208	3293921.0	1776544978.306063	0.0	1.0	-1.0	-1.0	-1.0	-1.0	-1.0	-1.0	-1.0	-1.0	0.0	marker	peace	Peace	26	0418
-68626.485	-55443.689999999995	-104837.48999999999	-18589.23	0.0	0.0	0.0	0.0	0.0	0.0	0.0	0.0	0.0	0.0	0.0	0.0	0.0	0.0	146.0	0.0	0.035583405	-0.042907605	1.020566235	1.4497	-0.15259999999999999	0.12208	3293922.0	1776544978.306085	0.0	1.0	-1.0	-1.0	-1.0	-1.0	-1.0	-1.0	-1.0	-1.0	0.0	marker	peace	Peace	26	0418
-68586.795	-55449.99	-104817.105	-18572.219999999998	0.0	0.0	0.0	0.0	0.0	0.0	0.0	0.0	0.0	0.0	0.0	0.0	0.0	0.0	146.0	0.0	0.03710928	-0.051086295000000004	1.012509615	2.65524	0.47306	-0.54936	3293923.0	1776544978.310196	0.0	1.0	-1.0	-1.0	-1.0	-1.0	-1.0	-1.0	-1.0	-1.0	0.0	marker	peace	Peace	26	0418
-68511.825	-55454.895	-104749.875	-18502.695	0.0	0.0	0.0	0.0	0.0	0.0	0.0	0.0	0.0	0.0	0.0	0.0	0.0	0.0	146.0	0.0	0.03710928	-0.051086295000000004	1.012509615	2.65524	0.47306	-0.54936	3293924.0	1776544978.310213	0.0	1.0	-1.0	-1.0	-1.0	-1.0	-1.0	-1.0	-1.0	-1.0	0.0	marker	peace	Peace	26	0418
-68533.065	-55459.079999999994	-104742.855	-18491.219999999998	0.0	0.0	0.0	0.0	0.0	0.0	0.0	0.0	0.0	0.0	0.0	0.0	0.0	0.0	146.0	0.0	0.03710928	-0.051086295000000004	1.012509615	2.65524	0.47306	-0.54936	3293925.0	1776544978.314314	0.0	1.0	-1.0	-1.0	-1.0	-1.0	-1.0	-1.0	-1.0	-1.0	0.0	marker	peace	Peace	26	0418
-68592.645	-55464.345	-104802.93	-18552.285	0.0	0.0	0.0	0.0	0.0	0.0	0.0	0.0	0.0	0.0	0.0	0.0	0.0	0.0	146.0	0.0	0.03710928	-0.051086295000000004	1.012509615	2.65524	0.47306	-0.54936	3293926.0	1776544978.314335	0.0	1.0	-1.0	-1.0	-1.0	-1.0	-1.0	-1.0	-1.0	-1.0	0.0	marker	peace	Peace	26	0418
-68561.055	-55466.1	-104801.265	-18567.36	0.0	0.0	0.0	0.0	0.0	0.0	0.0	0.0	0.0	0.0	0.0	0.0	0.0	0.0	146.0	0.0	0.03710928	-0.051086295000000004	1.012509615	2.65524	0.47306	-0.54936	3293927.0	1776544978.318161	0.0	1.0	-1.0	-1.0	-1.0	-1.0	-1.0	-1.0	-1.0	-1.0	0.0	marker	peace	Peace	26	0418
-68601.555	-55466.64	-104823.45	-18575.055	0.0	0.0	0.0	0.0	0.0	0.0	0.0	0.0	0.0	0.0	0.0	0.0	0.0	0.0	146.0	0.0	0.03710928	-0.051086295000000004	1.012509615	2.65524	0.47306	-0.54936	3293928.0	1776544978.318182	0.0	1.0	-1.0	-1.0	-1.0	-1.0	-1.0	-1.0	-1.0	-1.0	0.0	marker	peace	Peace	26	0418
-68624.28	-55470.78	-104815.75499999999	-18562.23	0.0	0.0	0.0	0.0	0.0	0.0	0.0	0.0	0.0	0.0	0.0	0.0	0.0	0.0	146.0	0.0	0.03710928	-0.051086295000000004	1.012509615	2.65524	0.47306	-0.54936	3293929.0	1776544978.322151	0.0	1.0	-1.0	-1.0	-1.0	-1.0	-1.0	-1.0	-1.0	-1.0	0.0	marker	peace	Peace	26	0418
-68597.64	-55488.015	-104785.425	-18539.19	0.0	0.0	0.0	0.0	0.0	0.0	0.0	0.0	0.0	0.0	0.0	0.0	0.0	0.0	146.0	0.0	0.03710928	-0.051086295000000004	1.012509615	2.65524	0.47306	-0.54936	3293930.0	1776544978.322167	0.0	1.0	-1.0	-1.0	-1.0	-1.0	-1.0	-1.0	-1.0	-1.0	0.0	marker	peace	Peace	26	0418
-68569.515	-55500.93	-104759.235	-18515.295	0.0	0.0	0.0	0.0	0.0	0.0	0.0	0.0	0.0	0.0	0.0	0.0	0.0	0.0	146.0	0.0	0.03710928	-0.051086295000000004	1.012509615	2.65524	0.47306	-0.54936	3293931.0	1776544978.326149	0.0	1.0	-1.0	-1.0	-1.0	-1.0	-1.0	-1.0	-1.0	-1.0	0.0	marker	peace	Peace	26	0418
-68558.94	-55507.095	-104768.415	-18520.155	0.0	0.0	0.0	0.0	0.0	0.0	0.0	0.0	0.0	0.0	0.0	0.0	0.0	0.0	146.0	0.0	0.03710928	-0.051086295000000004	1.012509615	2.65524	0.47306	-0.54936	3293932.0	1776544978.326164	0.0	1.0	-1.0	-1.0	-1.0	-1.0	-1.0	-1.0	-1.0	-1.0	0.0	marker	peace	Peace	26	0418
-68561.73	-55513.485	-104809.635	-18535.005	0.0	0.0	0.0	0.0	0.0	0.0	0.0	0.0	0.0	0.0	0.0	0.0	0.0	0.0	146.0	0.0	0.034850985	-0.05261217	1.013242035	3.37246	0.57988	-1.17502	3293933.0	1776544978.330192	0.0	1.0	-1.0	-1.0	-1.0	-1.0	-1.0	-1.0	-1.0	-1.0	0.0	marker	peace	Peace	26	0418
-68582.88	-55513.71	-104810.715	-18564.704999999998	0.0	0.0	0.0	0.0	0.0	0.0	0.0	0.0	0.0	0.0	0.0	0.0	0.0	0.0	146.0	0.0	0.034850985	-0.05261217	1.013242035	3.37246	0.57988	-1.17502	3293934.0	1776544978.330209	0.0	1.0	-1.0	-1.0	-1.0	-1.0	-1.0	-1.0	-1.0	-1.0	0.0	marker	peace	Peace	26	0418
-68591.88	-55517.939999999995	-104793.345	-18571.364999999998	0.0	0.0	0.0	0.0	0.0	0.0	0.0	0.0	0.0	0.0	0.0	0.0	0.0	0.0	146.0	0.0	0.034850985	-0.05261217	1.013242035	3.37246	0.57988	-1.17502	3293935.0	1776544978.334219	0.0	1.0	-1.0	-1.0	-1.0	-1.0	-1.0	-1.0	-1.0	-1.0	0.0	marker	peace	Peace	26	0418
-68588.64	-55526.265	-104767.245	-18545.265	0.0	0.0	0.0	0.0	0.0	0.0	0.0	0.0	0.0	0.0	0.0	0.0	0.0	0.0	146.0	0.0	0.034850985	-0.05261217	1.013242035	3.37246	0.57988	-1.17502	3293936.0	1776544978.334233	0.0	1.0	-1.0	-1.0	-1.0	-1.0	-1.0	-1.0	-1.0	-1.0	0.0	marker	peace	Peace	26	0418
-68586.705	-55531.845	-104772.915	-18568.305	0.0	0.0	0.0	0.0	0.0	0.0	0.0	0.0	0.0	0.0	0.0	0.0	0.0	0.0	146.0	0.0	0.034850985	-0.05261217	1.013242035	3.37246	0.57988	-1.17502	3293937.0	1776544978.33827	0.0	1.0	-1.0	-1.0	-1.0	-1.0	-1.0	-1.0	-1.0	-1.0	0.0	marker	peace	Peace	26	0418
-68573.52	-55534.454999999994	-104769.405	-18555.075	0.0	0.0	0.0	0.0	0.0	0.0	0.0	0.0	0.0	0.0	0.0	0.0	0.0	0.0	146.0	0.0	0.034850985	-0.05261217	1.013242035	3.37246	0.57988	-1.17502	3293938.0	1776544978.338284	0.0	1.0	-1.0	-1.0	-1.0	-1.0	-1.0	-1.0	-1.0	-1.0	0.0	marker	peace	Peace	26	0418
-68500.62	-55527.03	-104730.25499999999	-18490.995	0.0	0.0	0.0	0.0	0.0	0.0	0.0	0.0	0.0	0.0	0.0	0.0	0.0	0.0	146.0	0.0	0.034850985	-0.05261217	1.013242035	3.37246	0.57988	-1.17502	3293939.0	1776544978.342225	0.0	1.0	-1.0	-1.0	-1.0	-1.0	-1.0	-1.0	-1.0	-1.0	0.0	marker	peace	Peace	26	0418
-68531.48999999999	-55525.725	-104794.69499999999	-18518.085	0.0	0.0	0.0	0.0	0.0	0.0	0.0	0.0	0.0	0.0	0.0	0.0	0.0	0.0	146.0	0.0	0.034850985	-0.05261217	1.013242035	3.37246	0.57988	-1.17502	3293940.0	1776544978.342234	0.0	1.0	-1.0	-1.0	-1.0	-1.0	-1.0	-1.0	-1.0	-1.0	0.0	marker	peace	Peace	26	0418
-68585.67	-55527.255	-104813.955	-18544.95	0.0	0.0	0.0	0.0	0.0	0.0	0.0	0.0	0.0	0.0	0.0	0.0	0.0	0.0	146.0	0.0	0.034850985	-0.05261217	1.013242035	3.37246	0.57988	-1.17502	3293941.0	1776544978.346593	0.0	1.0	-1.0	-1.0	-1.0	-1.0	-1.0	-1.0	-1.0	-1.0	0.0	marker	peace	Peace	26	0418
-68583.23999999999	-55528.244999999995	-104813.14499999999	-18562.094999999998	0.0	0.0	0.0	0.0	0.0	0.0	0.0	0.0	0.0	0.0	0.0	0.0	0.0	0.0	146.0	0.0	0.034850985	-0.05261217	1.013242035	3.37246	0.57988	-1.17502	3293942.0	1776544978.346605	0.0	1.0	-1.0	-1.0	-1.0	-1.0	-1.0	-1.0	-1.0	-1.0	0.0	marker	peace	Peace	26	0418
-68598.81	-55527.525	-104803.83	-18548.325	0.0	0.0	0.0	0.0	0.0	0.0	0.0	0.0	0.0	0.0	0.0	0.0	0.0	0.0	146.0	0.0	0.03430167	-0.050231805	1.01708724	4.45592	0.6103999999999999	-1.31236	3293943.0	1776544978.352454	0.0	1.0	-1.0	-1.0	-1.0	-1.0	-1.0	-1.0	-1.0	-1.0	0.0	marker	peace	Peace	26	0418
-68599.34999999999	-55521.314999999995	-104805.58499999999	-18557.37	0.0	0.0	0.0	0.0	0.0	0.0	0.0	0.0	0.0	0.0	0.0	0.0	0.0	0.0	146.0	0.0	0.03430167	-0.050231805	1.01708724	4.45592	0.6103999999999999	-1.31236	3293944.0	1776544978.352493	0.0	1.0	-1.0	-1.0	-1.0	-1.0	-1.0	-1.0	-1.0	-1.0	0.0	marker	peace	Peace	26	0418
-68596.38	-55526.174999999996	-104818.68	-18577.125	0.0	0.0	0.0	0.0	0.0	0.0	0.0	0.0	0.0	0.0	0.0	0.0	0.0	0.0	146.0	0.0	0.03430167	-0.050231805	1.01708724	4.45592	0.6103999999999999	-1.31236	3293945.0	1776544978.354931	0.0	1.0	-1.0	-1.0	-1.0	-1.0	-1.0	-1.0	-1.0	-1.0	0.0	marker	peace	Peace	26	0418
-68600.11499999999	-55524.555	-104822.86499999999	-18583.515	0.0	0.0	0.0	0.0	0.0	0.0	0.0	0.0	0.0	0.0	0.0	0.0	0.0	0.0	146.0	0.0	0.03430167	-0.050231805	1.01708724	4.45592	0.6103999999999999	-1.31236	3293946.0	1776544978.354955	0.0	1.0	-1.0	-1.0	-1.0	-1.0	-1.0	-1.0	-1.0	-1.0	0.0	marker	peace	Peace	26	0418
-68601.19499999999	-55516.095	-104809.86	-18574.38	0.0	0.0	0.0	0.0	0.0	0.0	0.0	0.0	0.0	0.0	0.0	0.0	0.0	0.0	146.0	0.0	0.03430167	-0.050231805	1.01708724	4.45592	0.6103999999999999	-1.31236	3293947.0	1776544978.358267	0.0	1.0	-1.0	-1.0	-1.0	-1.0	-1.0	-1.0	-1.0	-1.0	0.0	marker	peace	Peace	26	0418
-68578.83	-55504.305	-104779.89	-18523.62	0.0	0.0	0.0	0.0	0.0	0.0	0.0	0.0	0.0	0.0	0.0	0.0	0.0	0.0	146.0	0.0	0.03430167	-0.050231805	1.01708724	4.45592	0.6103999999999999	-1.31236	3293948.0	1776544978.358279	0.0	1.0	-1.0	-1.0	-1.0	-1.0	-1.0	-1.0	-1.0	-1.0	0.0	marker	peace	Peace	26	0418
-68584.59	-55496.564999999995	-104793.165	-18513.899999999998	0.0	0.0	0.0	0.0	0.0	0.0	0.0	0.0	0.0	0.0	0.0	0.0	0.0	0.0	146.0	0.0	0.03430167	-0.050231805	1.01708724	4.45592	0.6103999999999999	-1.31236	3293949.0	1776544978.362297	0.0	1.0	-1.0	-1.0	-1.0	-1.0	-1.0	-1.0	-1.0	-1.0	0.0	marker	peace	Peace	26	0418
-68560.92	-55486.979999999996	-104776.515	-18494.19	0.0	0.0	0.0	0.0	0.0	0.0	0.0	0.0	0.0	0.0	0.0	0.0	0.0	0.0	146.0	0.0	0.03430167	-0.050231805	1.01708724	4.45592	0.6103999999999999	-1.31236	3293950.0	1776544978.362313	0.0	1.0	-1.0	-1.0	-1.0	-1.0	-1.0	-1.0	-1.0	-1.0	0.0	marker	peace	Peace	26	0418
-68524.29	-55476.18	-104749.92	-18515.7	0.0	0.0	0.0	0.0	0.0	0.0	0.0	0.0	0.0	0.0	0.0	0.0	0.0	0.0	146.0	0.0	0.03430167	-0.050231805	1.01708724	4.45592	0.6103999999999999	-1.31236	3293951.0	1776544978.366318	0.0	1.0	-1.0	-1.0	-1.0	-1.0	-1.0	-1.0	-1.0	-1.0	0.0	marker	peace	Peace	26	0418
-68563.53	-55477.799999999996	-104777.50499999999	-18565.02	0.0	0.0	0.0	0.0	0.0	0.0	0.0	0.0	0.0	0.0	0.0	0.0	0.0	0.0	146.0	0.0	0.03430167	-0.050231805	1.01708724	4.45592	0.6103999999999999	-1.31236	3293952.0	1776544978.366334	0.0	1.0	-1.0	-1.0	-1.0	-1.0	-1.0	-1.0	-1.0	-1.0	0.0	marker	peace	Peace	26	0418
-68589.315	-55480.814999999995	-104775.165	-18565.065	0.0	0.0	0.0	0.0	0.0	0.0	0.0	0.0	0.0	0.0	0.0	0.0	0.0	0.0	146.0	0.0	0.03808584	-0.044250375	1.015439295	3.815	0.25942	-1.09872	3293953.0	1776544978.37037	0.0	1.0	-1.0	-1.0	-1.0	-1.0	-1.0	-1.0	-1.0	-1.0	0.0	marker	peace	Peace	26	0418
-68607.27	-55484.954999999994	-104809.545	-18579.51	0.0	0.0	0.0	0.0	0.0	0.0	0.0	0.0	0.0	0.0	0.0	0.0	0.0	0.0	146.0	0.0	0.03808584	-0.044250375	1.015439295	3.815	0.25942	-1.09872	3293954.0	1776544978.370397	0.0	1.0	-1.0	-1.0	-1.0	-1.0	-1.0	-1.0	-1.0	-1.0	0.0	marker	peace	Peace	26	0418
-68613.03	-55493.189999999995	-104842.215	-18574.829999999998	0.0	0.0	0.0	0.0	0.0	0.0	0.0	0.0	0.0	0.0	0.0	0.0	0.0	0.0	146.0	0.0	0.03808584	-0.044250375	1.015439295	3.815	0.25942	-1.09872	3293955.0	1776544978.374305	0.0	1.0	-1.0	-1.0	-1.0	-1.0	-1.0	-1.0	-1.0	-1.0	0.0	marker	peace	Peace	26	0418
-68594.58	-55498.14	-104815.575	-18550.98	0.0	0.0	0.0	0.0	0.0	0.0	0.0	0.0	0.0	0.0	0.0	0.0	0.0	0.0	146.0	0.0	0.03808584	-0.044250375	1.015439295	3.815	0.25942	-1.09872	3293956.0	1776544978.374322	0.0	1.0	-1.0	-1.0	-1.0	-1.0	-1.0	-1.0	-1.0	-1.0	0.0	marker	peace	Peace	26	0418
-68584.77	-55497.825	-104801.715	-18542.16	0.0	0.0	0.0	0.0	0.0	0.0	0.0	0.0	0.0	0.0	0.0	0.0	0.0	0.0	146.0	0.0	0.03808584	-0.044250375	1.015439295	3.815	0.25942	-1.09872	3293957.0	1776544978.378487	0.0	1.0	-1.0	-1.0	-1.0	-1.0	-1.0	-1.0	-1.0	-1.0	0.0	marker	peace	Peace	26	0418
-68561.01	-55491.345	-104785.73999999999	-18533.79	0.0	0.0	0.0	0.0	0.0	0.0	0.0	0.0	0.0	0.0	0.0	0.0	0.0	0.0	146.0	0.0	0.03808584	-0.044250375	1.015439295	3.815	0.25942	-1.09872	3293958.0	1776544978.378503	0.0	1.0	-1.0	-1.0	-1.0	-1.0	-1.0	-1.0	-1.0	-1.0	0.0	marker	peace	Peace	26	0418
-68532.93	-55485.945	-104769.98999999999	-18515.295	0.0	0.0	0.0	0.0	0.0	0.0	0.0	0.0	0.0	0.0	0.0	0.0	0.0	0.0	146.0	0.0	0.03808584	-0.044250375	1.015439295	3.815	0.25942	-1.09872	3293959.0	1776544978.382518	0.0	1.0	-1.0	-1.0	-1.0	-1.0	-1.0	-1.0	-1.0	-1.0	0.0	marker	peace	Peace	26	0418
-68590.485	-55489.229999999996	-104821.65	-18571.274999999998	0.0	0.0	0.0	0.0	0.0	0.0	0.0	0.0	0.0	0.0	0.0	0.0	0.0	0.0	146.0	0.0	0.03808584	-0.044250375	1.015439295	3.815	0.25942	-1.09872	3293960.0	1776544978.382543	0.0	1.0	-1.0	-1.0	-1.0	-1.0	-1.0	-1.0	-1.0	-1.0	0.0	marker	peace	Peace	26	0418
-68596.605	-55501.11	-104807.295	-18562.635	0.0	0.0	0.0	0.0	0.0	0.0	0.0	0.0	0.0	0.0	0.0	0.0	0.0	0.0	146.0	0.0	0.03808584	-0.044250375	1.015439295	3.815	0.25942	-1.09872	3293961.0	1776544978.388908	0.0	1.0	-1.0	-1.0	-1.0	-1.0	-1.0	-1.0	-1.0	-1.0	0.0	marker	peace	Peace	26	0418
-68596.155	-55503.134999999995	-104805.765	-18564.84	0.0	0.0	0.0	0.0	0.0	0.0	0.0	0.0	0.0	0.0	0.0	0.0	0.0	0.0	146.0	0.0	0.03808584	-0.044250375	1.015439295	3.815	0.25942	-1.09872	3293962.0	1776544978.388943	0.0	1.0	-1.0	-1.0	-1.0	-1.0	-1.0	-1.0	-1.0	-1.0	0.0	marker	peace	Peace	26	0418
-68570.28	-55501.11	-104786.28	-18543.96	0.0	0.0	0.0	0.0	0.0	0.0	0.0	0.0	0.0	0.0	0.0	0.0	0.0	0.0	146.0	0.0	0.03552237	-0.041931045	1.018124835	4.16598	0.30519999999999997	-0.97664	3293963.0	1776544978.390444	0.0	1.0	-1.0	-1.0	-1.0	-1.0	-1.0	-1.0	-1.0	-1.0	0.0	marker	peace	Peace	26	0418
-68589.495	-55508.67	-104802.39	-18552.149999999998	0.0	0.0	0.0	0.0	0.0	0.0	0.0	0.0	0.0	0.0	0.0	0.0	0.0	0.0	146.0	0.0	0.03552237	-0.041931045	1.018124835	4.16598	0.30519999999999997	-0.97664	3293964.0	1776544978.390461	0.0	1.0	-1.0	-1.0	-1.0	-1.0	-1.0	-1.0	-1.0	-1.0	0.0	marker	peace	Peace	26	0418
-68568.56999999999	-55511.954999999994	-104783.44499999999	-18521.684999999998	0.0	0.0	0.0	0.0	0.0	0.0	0.0	0.0	0.0	0.0	0.0	0.0	0.0	0.0	146.0	0.0	0.03552237	-0.041931045	1.018124835	4.16598	0.30519999999999997	-0.97664	3293965.0	1776544978.394664	0.0	1.0	-1.0	-1.0	-1.0	-1.0	-1.0	-1.0	-1.0	-1.0	0.0	marker	peace	Peace	26	0418
-68572.485	-55507.86	-104786.14499999999	-18525.645	0.0	0.0	0.0	0.0	0.0	0.0	0.0	0.0	0.0	0.0	0.0	0.0	0.0	0.0	146.0	0.0	0.03552237	-0.041931045	1.018124835	4.16598	0.30519999999999997	-0.97664	3293966.0	1776544978.394684	0.0	1.0	-1.0	-1.0	-1.0	-1.0	-1.0	-1.0	-1.0	-1.0	0.0	marker	peace	Peace	26	0418
-68607.0	-55499.895	-104810.58	-18560.61	0.0	0.0	0.0	0.0	0.0	0.0	0.0	0.0	0.0	0.0	0.0	0.0	0.0	0.0	146.0	0.0	0.03552237	-0.041931045	1.018124835	4.16598	0.30519999999999997	-0.97664	3293967.0	1776544978.398439	0.0	1.0	-1.0	-1.0	-1.0	-1.0	-1.0	-1.0	-1.0	-1.0	0.0	marker	peace	Peace	26	0418
-68557.905	-55506.465	-104780.97	-18535.454999999998	0.0	0.0	0.0	0.0	0.0	0.0	0.0	0.0	0.0	0.0	0.0	0.0	0.0	0.0	145.6551724137931	0.0	0.03552237	-0.041931045	1.018124835	4.16598	0.30519999999999997	-0.97664	3293968.0	1776544978.398478	0.0	1.0	-1.0	-1.0	-1.0	-1.0	-1.0	-1.0	-1.0	-1.0	0.0	marker	peace	Peace	26	0418
-68545.8	-55538.549999999996	-104797.845	-18546.39	0.0	0.0	0.0	0.0	0.0	0.0	0.0	0.0	0.0	0.0	0.0	0.0	0.0	0.0	145.6551724137931	0.0	0.03552237	-0.041931045	1.018124835	4.16598	0.30519999999999997	-0.97664	3293969.0	1776544978.402572	0.0	1.0	-1.0	-1.0	-1.0	-1.0	-1.0	-1.0	-1.0	-1.0	0.0	marker	peace	Peace	26	0418
-68610.78	-55547.64	-104861.25	-18611.91	0.0	0.0	0.0	0.0	0.0	0.0	0.0	0.0	0.0	0.0	0.0	0.0	0.0	0.0	145.6551724137931	0.0	0.03552237	-0.041931045	1.018124835	4.16598	0.30519999999999997	-0.97664	3293970.0	1776544978.402611	0.0	1.0	-1.0	-1.0	-1.0	-1.0	-1.0	-1.0	-1.0	-1.0	0.0	marker	peace	Peace	26	0418
-68575.815	-55554.075	-104809.815	-18576.405	0.0	0.0	0.0	0.0	0.0	0.0	0.0	0.0	0.0	0.0	0.0	0.0	0.0	0.0	145.6551724137931	0.0	0.03552237	-0.041931045	1.018124835	4.16598	0.30519999999999997	-0.97664	3293971.0	1776544978.406398	0.0	1.0	-1.0	-1.0	-1.0	-1.0	-1.0	-1.0	-1.0	-1.0	0.0	marker	peace	Peace	26	0418
-68577.795	-55552.59	-104754.105	-18543.239999999998	0.0	0.0	0.0	0.0	0.0	0.0	0.0	0.0	0.0	0.0	0.0	0.0	0.0	0.0	145.6551724137931	0.0	0.03552237	-0.041931045	1.018124835	4.16598	0.30519999999999997	-0.97664	3293972.0	1776544978.406416	0.0	1.0	-1.0	-1.0	-1.0	-1.0	-1.0	-1.0	-1.0	-1.0	0.0	marker	peace	Peace	26	0418
-68605.065	-55552.365	-104740.37999999999	-18535.41	0.0	0.0	0.0	0.0	0.0	0.0	0.0	0.0	0.0	0.0	0.0	0.0	0.0	0.0	145.6551724137931	0.0	0.033874425	-0.041564835	1.019467605	3.7234399999999996	0.01526	-0.9156	3293973.0	1776544978.410512	0.0	1.0	-1.0	-1.0	-1.0	-1.0	-1.0	-1.0	-1.0	-1.0	0.0	marker	peace	Peace	26	0418
-68576.44499999999	-55556.369999999995	-104786.50499999999	-18565.469999999998	0.0	0.0	0.0	0.0	0.0	0.0	0.0	0.0	0.0	0.0	0.0	0.0	0.0	0.0	145.6551724137931	0.0	0.033874425	-0.041564835	1.019467605	3.7234399999999996	0.01526	-0.9156	3293974.0	1776544978.410528	0.0	1.0	-1.0	-1.0	-1.0	-1.0	-1.0	-1.0	-1.0	-1.0	0.0	marker	peace	Peace	26	0418
-68578.11	-55551.015	-104795.595	-18571.545	0.0	0.0	0.0	0.0	0.0	0.0	0.0	0.0	0.0	0.0	0.0	0.0	0.0	0.0	145.6551724137931	0.0	0.033874425	-0.041564835	1.019467605	3.7234399999999996	0.01526	-0.9156	3293975.0	1776544978.417444	0.0	1.0	-1.0	-1.0	-1.0	-1.0	-1.0	-1.0	-1.0	-1.0	0.0	marker	peace	Peace	26	0418
-68583.465	-55550.924999999996	-104774.715	-18529.065	0.0	0.0	0.0	0.0	0.0	0.0	0.0	0.0	0.0	0.0	0.0	0.0	0.0	0.0	145.6551724137931	0.0	0.033874425	-0.041564835	1.019467605	3.7234399999999996	0.01526	-0.9156	3293976.0	1776544978.417465	0.0	1.0	-1.0	-1.0	-1.0	-1.0	-1.0	-1.0	-1.0	-1.0	0.0	marker	peace	Peace	26	0418
-68578.83	-55556.46	-104787.18	-18517.32	0.0	0.0	0.0	0.0	0.0	0.0	0.0	0.0	0.0	0.0	0.0	0.0	0.0	0.0	145.6551724137931	0.0	0.033874425	-0.041564835	1.019467605	3.7234399999999996	0.01526	-0.9156	3293977.0	1776544978.418438	0.0	1.0	-1.0	-1.0	-1.0	-1.0	-1.0	-1.0	-1.0	-1.0	0.0	marker	peace	Peace	26	0418
-68595.56999999999	-55562.67	-104825.83499999999	-18533.745	0.0	0.0	0.0	0.0	0.0	0.0	0.0	0.0	0.0	0.0	0.0	0.0	0.0	0.0	145.6551724137931	0.0	0.033874425	-0.041564835	1.019467605	3.7234399999999996	0.01526	-0.9156	3293978.0	1776544978.418459	0.0	1.0	-1.0	-1.0	-1.0	-1.0	-1.0	-1.0	-1.0	-1.0	0.0	marker	peace	Peace	26	0418
-68577.93	-55574.325	-104798.295	-18535.005	0.0	0.0	0.0	0.0	0.0	0.0	0.0	0.0	0.0	0.0	0.0	0.0	0.0	0.0	145.6551724137931	0.0	0.033874425	-0.041564835	1.019467605	3.7234399999999996	0.01526	-0.9156	3293979.0	1776544978.42242	0.0	1.0	-1.0	-1.0	-1.0	-1.0	-1.0	-1.0	-1.0	-1.0	0.0	marker	peace	Peace	26	0418
-68562.135	-55581.704999999994	-104752.08	-18523.079999999998	0.0	0.0	0.0	0.0	0.0	0.0	0.0	0.0	0.0	0.0	0.0	0.0	0.0	0.0	145.6551724137931	0.0	0.033874425	-0.041564835	1.019467605	3.7234399999999996	0.01526	-0.9156	3293980.0	1776544978.422441	0.0	1.0	-1.0	-1.0	-1.0	-1.0	-1.0	-1.0	-1.0	-1.0	0.0	marker	peace	Peace	26	0418
-68573.745	-55584.27	-104766.075	-18540.719999999998	0.0	0.0	0.0	0.0	0.0	0.0	0.0	0.0	0.0	0.0	0.0	0.0	0.0	0.0	145.6551724137931	0.0	0.033874425	-0.041564835	1.019467605	3.7234399999999996	0.01526	-0.9156	3293981.0	1776544978.426514	0.0	1.0	-1.0	-1.0	-1.0	-1.0	-1.0	-1.0	-1.0	-1.0	0.0	marker	peace	Peace	26	0418
-68571.98999999999	-55581.704999999994	-104759.955	-18554.219999999998	0.0	0.0	0.0	0.0	0.0	0.0	0.0	0.0	0.0	0.0	0.0	0.0	0.0	0.0	145.6551724137931	0.0	0.033874425	-0.041564835	1.019467605	3.7234399999999996	0.01526	-0.9156	3293982.0	1776544978.426529	0.0	1.0	-1.0	-1.0	-1.0	-1.0	-1.0	-1.0	-1.0	-1.0	0.0	marker	peace	Peace	26	0418
-68566.185	-55572.39	-104749.56	-18524.52	0.0	0.0	0.0	0.0	0.0	0.0	0.0	0.0	0.0	0.0	0.0	0.0	0.0	0.0	145.6551724137931	0.0	0.03735342	-0.044128305	1.018368975	3.78448	0.24416	-1.15976	3293983.0	1776544978.430625	0.0	1.0	-1.0	-1.0	-1.0	-1.0	-1.0	-1.0	-1.0	-1.0	0.0	marker	peace	Peace	26	0418
-68582.43	-55569.6	-104811.56999999999	-18540.945	0.0	0.0	0.0	0.0	0.0	0.0	0.0	0.0	0.0	0.0	0.0	0.0	0.0	0.0	145.6551724137931	0.0	0.03735342	-0.044128305	1.018368975	3.78448	0.24416	-1.15976	3293984.0	1776544978.43065	0.0	1.0	-1.0	-1.0	-1.0	-1.0	-1.0	-1.0	-1.0	-1.0	0.0	marker	peace	Peace	26	0418
-68585.94	-55565.46	-104831.50499999999	-18562.815	0.0	0.0	0.0	0.0	0.0	0.0	0.0	0.0	0.0	0.0	0.0	0.0	0.0	0.0	145.6551724137931	0.0	0.03735342	-0.044128305	1.018368975	3.78448	0.24416	-1.15976	3293985.0	1776544978.434531	0.0	1.0	-1.0	-1.0	-1.0	-1.0	-1.0	-1.0	-1.0	-1.0	0.0	marker	peace	Peace	26	0418
-68588.145	-55558.755	-104816.87999999999	-18568.89	0.0	0.0	0.0	0.0	0.0	0.0	0.0	0.0	0.0	0.0	0.0	0.0	0.0	0.0	145.6551724137931	0.0	0.03735342	-0.044128305	1.018368975	3.78448	0.24416	-1.15976	3293986.0	1776544978.434553	0.0	1.0	-1.0	-1.0	-1.0	-1.0	-1.0	-1.0	-1.0	-1.0	0.0	marker	peace	Peace	26	0418
-68582.88	-55555.29	-104810.89499999999	-18568.079999999998	0.0	0.0	0.0	0.0	0.0	0.0	0.0	0.0	0.0	0.0	0.0	0.0	0.0	0.0	145.6551724137931	0.0	0.03735342	-0.044128305	1.018368975	3.78448	0.24416	-1.15976	3293987.0	1776544978.438548	0.0	1.0	-1.0	-1.0	-1.0	-1.0	-1.0	-1.0	-1.0	-1.0	0.0	marker	peace	Peace	26	0418
-68577.705	-55564.695	-104816.295	-18550.844999999998	0.0	0.0	0.0	0.0	0.0	0.0	0.0	0.0	0.0	0.0	0.0	0.0	0.0	0.0	145.6551724137931	0.0	0.03735342	-0.044128305	1.018368975	3.78448	0.24416	-1.15976	3293988.0	1776544978.438574	0.0	1.0	-1.0	-1.0	-1.0	-1.0	-1.0	-1.0	-1.0	-1.0	0.0	marker	peace	Peace	26	0418
-68573.97	-55579.77	-104802.525	-18531.945	0.0	0.0	0.0	0.0	0.0	0.0	0.0	0.0	0.0	0.0	0.0	0.0	0.0	0.0	145.6551724137931	0.0	0.03735342	-0.044128305	1.018368975	3.78448	0.24416	-1.15976	3293989.0	1776544978.442538	0.0	1.0	-1.0	-1.0	-1.0	-1.0	-1.0	-1.0	-1.0	-1.0	0.0	marker	peace	Peace	26	0418
-68556.95999999999	-55578.24	-104781.15	-18527.399999999998	0.0	0.0	0.0	0.0	0.0	0.0	0.0	0.0	0.0	0.0	0.0	0.0	0.0	0.0	145.6551724137931	0.0	0.03735342	-0.044128305	1.018368975	3.78448	0.24416	-1.15976	3293990.0	1776544978.442553	0.0	1.0	-1.0	-1.0	-1.0	-1.0	-1.0	-1.0	-1.0	-1.0	0.0	marker	peace	Peace	26	0418
-68594.48999999999	-55583.909999999996	-104815.75499999999	-18570.6	0.0	0.0	0.0	0.0	0.0	0.0	0.0	0.0	0.0	0.0	0.0	0.0	0.0	0.0	145.6551724137931	0.0	0.03735342	-0.044128305	1.018368975	3.78448	0.24416	-1.15976	3293991.0	1776544978.446696	0.0	1.0	-1.0	-1.0	-1.0	-1.0	-1.0	-1.0	-1.0	-1.0	0.0	marker	peace	Peace	26	0418
-68565.915	-55582.695	-104774.48999999999	-18530.73	0.0	0.0	0.0	0.0	0.0	0.0	0.0	0.0	0.0	0.0	0.0	0.0	0.0	0.0	145.6551724137931	0.0	0.03735342	-0.044128305	1.018368975	3.78448	0.24416	-1.15976	3293992.0	1776544978.446721	0.0	1.0	-1.0	-1.0	-1.0	-1.0	-1.0	-1.0	-1.0	-1.0	0.0	marker	peace	Peace	26	0418
-68529.735	-55582.11	-104733.855	-18494.325	0.0	0.0	0.0	0.0	0.0	0.0	0.0	0.0	0.0	0.0	0.0	0.0	0.0	0.0	145.6551724137931	0.0	0.03283683	-0.04724109	1.018124835	5.7988	0.12208	-1.43444	3293993.0	1776544978.450649	0.0	1.0	-1.0	-1.0	-1.0	-1.0	-1.0	-1.0	-1.0	-1.0	0.0	marker	peace	Peace	26	0418
-68542.065	-55582.2	-104757.56999999999	-18511.469999999998	0.0	0.0	0.0	0.0	0.0	0.0	0.0	0.0	0.0	0.0	0.0	0.0	0.0	0.0	145.6551724137931	0.0	0.03283683	-0.04724109	1.018124835	5.7988	0.12208	-1.43444	3293994.0	1776544978.450665	0.0	1.0	-1.0	-1.0	-1.0	-1.0	-1.0	-1.0	-1.0	-1.0	0.0	marker	peace	Peace	26	0418
-68590.755	-55583.145	-104827.455	-18578.565	0.0	0.0	0.0	0.0	0.0	0.0	0.0	0.0	0.0	0.0	0.0	0.0	0.0	0.0	145.6551724137931	0.0	0.03283683	-0.04724109	1.018124835	5.7988	0.12208	-1.43444	3293995.0	1776544978.454666	0.0	1.0	-1.0	-1.0	-1.0	-1.0	-1.0	-1.0	-1.0	-1.0	0.0	marker	peace	Peace	26	0418
-68613.93	-55576.395	-104810.44499999999	-18578.565	0.0	0.0	0.0	0.0	0.0	0.0	0.0	0.0	0.0	0.0	0.0	0.0	0.0	0.0	145.6551724137931	0.0	0.03283683	-0.04724109	1.018124835	5.7988	0.12208	-1.43444	3293996.0	1776544978.454691	0.0	1.0	-1.0	-1.0	-1.0	-1.0	-1.0	-1.0	-1.0	-1.0	0.0	marker	peace	Peace	26	0418
-68595.795	-55569.104999999996	-104766.56999999999	-18540.855	0.0	0.0	0.0	0.0	0.0	0.0	0.0	0.0	0.0	0.0	0.0	0.0	0.0	0.0	145.6551724137931	0.0	0.03283683	-0.04724109	1.018124835	5.7988	0.12208	-1.43444	3293997.0	1776544978.458666	0.0	1.0	-1.0	-1.0	-1.0	-1.0	-1.0	-1.0	-1.0	-1.0	0.0	marker	peace	Peace	26	0418
-68538.19499999999	-55570.005	-104754.42	-18526.545	0.0	0.0	0.0	0.0	0.0	0.0	0.0	0.0	0.0	0.0	0.0	0.0	0.0	0.0	145.6551724137931	0.0	0.03283683	-0.04724109	1.018124835	5.7988	0.12208	-1.43444	3293998.0	1776544978.458681	0.0	1.0	-1.0	-1.0	-1.0	-1.0	-1.0	-1.0	-1.0	-1.0	0.0	marker	peace	Peace	26	0418
-68544.98999999999	-55573.155	-104801.22	-18540.809999999998	0.0	0.0	0.0	0.0	0.0	0.0	0.0	0.0	0.0	0.0	0.0	0.0	0.0	0.0	145.6551724137931	0.0	0.03283683	-0.04724109	1.018124835	5.7988	0.12208	-1.43444	3293999.0	1776544978.462559	0.0	1.0	-1.0	-1.0	-1.0	-1.0	-1.0	-1.0	-1.0	-1.0	0.0	marker	peace	Peace	26	0418
-68592.105	-55558.665	-104824.17	-18565.649999999998	0.0	0.0	0.0	0.0	0.0	0.0	0.0	0.0	0.0	0.0	0.0	0.0	0.0	0.0	145.6551724137931	0.0	0.03283683	-0.04724109	1.018124835	5.7988	0.12208	-1.43444	3294000.0	1776544978.462572	0.0	1.0	-1.0	-1.0	-1.0	-1.0	-1.0	-1.0	-1.0	-1.0	0.0	marker	peace	Peace	26	0418
-68632.965	-55541.204999999994	-104824.665	-18574.38	0.0	0.0	0.0	0.0	0.0	0.0	0.0	0.0	0.0	0.0	0.0	0.0	0.0	0.0	145.6551724137931	0.0	0.03283683	-0.04724109	1.018124835	5.7988	0.12208	-1.43444	3294001.0	1776544978.466816	0.0	1.0	-1.0	-1.0	-1.0	-1.0	-1.0	-1.0	-1.0	-1.0	0.0	marker	peace	Peace	26	0418
-68567.44499999999	-55529.954999999994	-104777.50499999999	-18510.524999999998	0.0	0.0	0.0	0.0	0.0	0.0	0.0	0.0	0.0	0.0	0.0	0.0	0.0	0.0	145.6551724137931	0.0	0.03283683	-0.04724109	1.018124835	5.7988	0.12208	-1.43444	3294002.0	1776544978.466881	0.0	1.0	-1.0	-1.0	-1.0	-1.0	-1.0	-1.0	-1.0	-1.0	0.0	marker	peace	Peace	26	0418
-68549.67	-55531.079999999994	-104763.69	-18504.495	0.0	0.0	0.0	0.0	0.0	0.0	0.0	0.0	0.0	0.0	0.0	0.0	0.0	0.0	145.6551724137931	0.0	0.03576651	-0.040099995	1.0119603	3.8760399999999997	0.9919	-0.9003399999999999	3294003.0	1776544978.470678	0.0	1.0	-1.0	-1.0	-1.0	-1.0	-1.0	-1.0	-1.0	-1.0	0.0	marker	peace	Peace	26	0418
-68614.065	-55531.485	-104812.245	-18561.69	0.0	0.0	0.0	0.0	0.0	0.0	0.0	0.0	0.0	0.0	0.0	0.0	0.0	0.0	145.6551724137931	0.0	0.03576651	-0.040099995	1.0119603	3.8760399999999997	0.9919	-0.9003399999999999	3294004.0	1776544978.47071	0.0	1.0	-1.0	-1.0	-1.0	-1.0	-1.0	-1.0	-1.0	-1.0	0.0	marker	peace	Peace	26	0418
-68618.7	-55532.924999999996	-104810.94	-18555.434999999998	0.0	0.0	0.0	0.0	0.0	0.0	0.0	0.0	0.0	0.0	0.0	0.0	0.0	0.0	145.6551724137931	0.0	0.03576651	-0.040099995	1.0119603	3.8760399999999997	0.9919	-0.9003399999999999	3294005.0	1776544978.474672	0.0	1.0	-1.0	-1.0	-1.0	-1.0	-1.0	-1.0	-1.0	-1.0	0.0	marker	peace	Peace	26	0418
-68595.84	-55522.17	-104787.62999999999	-18544.545	0.0	0.0	0.0	0.0	0.0	0.0	0.0	0.0	0.0	0.0	0.0	0.0	0.0	0.0	145.6551724137931	0.0	0.03576651	-0.040099995	1.0119603	3.8760399999999997	0.9919	-0.9003399999999999	3294006.0	1776544978.474692	0.0	1.0	-1.0	-1.0	-1.0	-1.0	-1.0	-1.0	-1.0	-1.0	0.0	marker	peace	Peace	26	0418
-68587.29	-55511.954999999994	-104809.68	-18559.44	0.0	0.0	0.0	0.0	0.0	0.0	0.0	0.0	0.0	0.0	0.0	0.0	0.0	0.0	145.6551724137931	0.0	0.03576651	-0.040099995	1.0119603	3.8760399999999997	0.9919	-0.9003399999999999	3294007.0	1776544978.478697	0.0	1.0	-1.0	-1.0	-1.0	-1.0	-1.0	-1.0	-1.0	-1.0	0.0	marker	peace	Peace	26	0418
-68582.79	-55500.884999999995	-104804.37	-18553.995	0.0	0.0	0.0	0.0	0.0	0.0	0.0	0.0	0.0	0.0	0.0	0.0	0.0	0.0	145.6551724137931	0.0	0.03576651	-0.040099995	1.0119603	3.8760399999999997	0.9919	-0.9003399999999999	3294008.0	1776544978.478716	0.0	1.0	-1.0	-1.0	-1.0	-1.0	-1.0	-1.0	-1.0	-1.0	0.0	marker	peace	Peace	26	0418
-68587.38	-55493.595	-104807.565	-18552.645	0.0	0.0	0.0	0.0	0.0	0.0	0.0	0.0	0.0	0.0	0.0	0.0	0.0	0.0	145.6551724137931	0.0	0.03576651	-0.040099995	1.0119603	3.8760399999999997	0.9919	-0.9003399999999999	3294009.0	1776544978.482778	0.0	1.0	-1.0	-1.0	-1.0	-1.0	-1.0	-1.0	-1.0	-1.0	0.0	marker	peace	Peace	26	0418
-68598.045	-55495.619999999995	-104849.235	-18583.335	0.0	0.0	0.0	0.0	0.0	0.0	0.0	0.0	0.0	0.0	0.0	0.0	0.0	0.0	145.6551724137931	0.0	0.03576651	-0.040099995	1.0119603	3.8760399999999997	0.9919	-0.9003399999999999	3294010.0	1776544978.482805	0.0	1.0	-1.0	-1.0	-1.0	-1.0	-1.0	-1.0	-1.0	-1.0	0.0	marker	peace	Peace	26	0418
-68602.36499999999	-55495.799999999996	-104840.86499999999	-18579.645	0.0	0.0	0.0	0.0	0.0	0.0	0.0	0.0	0.0	0.0	0.0	0.0	0.0	0.0	145.6551724137931	0.0	0.03576651	-0.040099995	1.0119603	3.8760399999999997	0.9919	-0.9003399999999999	3294011.0	1776544978.486777	0.0	1.0	-1.0	-1.0	-1.0	-1.0	-1.0	-1.0	-1.0	-1.0	0.0	marker	peace	Peace	26	0418
-68593.995	-55500.57	-104815.89	-18559.079999999998	0.0	0.0	0.0	0.0	0.0	0.0	0.0	0.0	0.0	0.0	0.0	0.0	0.0	0.0	145.6551724137931	0.0	0.03576651	-0.040099995	1.0119603	3.8760399999999997	0.9919	-0.9003399999999999	3294012.0	1776544978.486799	0.0	1.0	-1.0	-1.0	-1.0	-1.0	-1.0	-1.0	-1.0	-1.0	0.0	marker	peace	Peace	26	0418
-68564.97	-55507.68	-104800.095	-18559.079999999998	0.0	0.0	0.0	0.0	0.0	0.0	0.0	0.0	0.0	0.0	0.0	0.0	0.0	0.0	145.6551724137931	0.0	0.036621	-0.0427245	1.012753755	4.37962	1.2207999999999999	-0.5341	3294013.0	1776544978.490716	0.0	1.0	-1.0	-1.0	-1.0	-1.0	-1.0	-1.0	-1.0	-1.0	0.0	marker	peace	Peace	26	0418
-68559.345	-55512.854999999996	-104773.14	-18526.05	0.0	0.0	0.0	0.0	0.0	0.0	0.0	0.0	0.0	0.0	0.0	0.0	0.0	0.0	145.6551724137931	0.0	0.036621	-0.0427245	1.012753755	4.37962	1.2207999999999999	-0.5341	3294014.0	1776544978.490732	0.0	1.0	-1.0	-1.0	-1.0	-1.0	-1.0	-1.0	-1.0	-1.0	0.0	marker	peace	Peace	26	0418
-68589.58499999999	-55513.439999999995	-104778.09	-18524.79	0.0	0.0	0.0	0.0	0.0	0.0	0.0	0.0	0.0	0.0	0.0	0.0	0.0	0.0	145.6551724137931	0.0	0.036621	-0.0427245	1.012753755	4.37962	1.2207999999999999	-0.5341	3294015.0	1776544978.494683	0.0	1.0	-1.0	-1.0	-1.0	-1.0	-1.0	-1.0	-1.0	-1.0	0.0	marker	peace	Peace	26	0418
-68582.79	-55511.954999999994	-104784.39	-18540.045	0.0	0.0	0.0	0.0	0.0	0.0	0.0	0.0	0.0	0.0	0.0	0.0	0.0	0.0	145.6551724137931	0.0	0.036621	-0.0427245	1.012753755	4.37962	1.2207999999999999	-0.5341	3294016.0	1776544978.494696	0.0	1.0	-1.0	-1.0	-1.0	-1.0	-1.0	-1.0	-1.0	-1.0	0.0	marker	peace	Peace	26	0418
-68564.79	-55507.905	-104778.09	-18539.28	0.0	0.0	0.0	0.0	0.0	0.0	0.0	0.0	0.0	0.0	0.0	0.0	0.0	0.0	145.6551724137931	0.0	0.036621	-0.0427245	1.012753755	4.37962	1.2207999999999999	-0.5341	3294017.0	1776544978.498711	0.0	1.0	-1.0	-1.0	-1.0	-1.0	-1.0	-1.0	-1.0	-1.0	0.0	marker	peace	Peace	26	0418
-68577.795	-55500.39	-104795.73	-18543.285	0.0	0.0	0.0	0.0	0.0	0.0	0.0	0.0	0.0	0.0	0.0	0.0	0.0	0.0	145.6551724137931	0.0	0.036621	-0.0427245	1.012753755	4.37962	1.2207999999999999	-0.5341	3294018.0	1776544978.498739	0.0	1.0	-1.0	-1.0	-1.0	-1.0	-1.0	-1.0	-1.0	-1.0	0.0	marker	peace	Peace	26	0418
-68582.43	-55502.145	-104807.7	-18545.175	0.0	0.0	0.0	0.0	0.0	0.0	0.0	0.0	0.0	0.0	0.0	0.0	0.0	0.0	145.6551724137931	0.0	0.036621	-0.0427245	1.012753755	4.37962	1.2207999999999999	-0.5341	3294019.0	1776544978.502767	0.0	1.0	-1.0	-1.0	-1.0	-1.0	-1.0	-1.0	-1.0	-1.0	0.0	marker	peace	Peace	26	0418
-68539.995	-55505.744999999995	-104767.37999999999	-18515.475	0.0	0.0	0.0	0.0	0.0	0.0	0.0	0.0	0.0	0.0	0.0	0.0	0.0	0.0	145.6551724137931	0.0	0.036621	-0.0427245	1.012753755	4.37962	1.2207999999999999	-0.5341	3294020.0	1776544978.502793	0.0	1.0	-1.0	-1.0	-1.0	-1.0	-1.0	-1.0	-1.0	-1.0	0.0	marker	peace	Peace	26	0418
-68518.935	-55516.365	-104747.355	-18497.7	0.0	0.0	0.0	0.0	0.0	0.0	0.0	0.0	0.0	0.0	0.0	0.0	0.0	0.0	145.6551724137931	0.0	0.036621	-0.0427245	1.012753755	4.37962	1.2207999999999999	-0.5341	3294021.0	1776544978.506753	0.0	1.0	-1.0	-1.0	-1.0	-1.0	-1.0	-1.0	-1.0	-1.0	0.0	marker	peace	Peace	26	0418
-68580.855	-55525.905	-104801.67	-18552.015	0.0	0.0	0.0	0.0	0.0	0.0	0.0	0.0	0.0	0.0	0.0	0.0	0.0	0.0	145.6551724137931	0.0	0.036621	-0.0427245	1.012753755	4.37962	1.2207999999999999	-0.5341	3294022.0	1776544978.506773	0.0	1.0	-1.0	-1.0	-1.0	-1.0	-1.0	-1.0	-1.0	-1.0	0.0	marker	peace	Peace	26	0418
-68577.705	-55524.015	-104770.935	-18520.559999999998	0.0	0.0	0.0	0.0	0.0	0.0	0.0	0.0	0.0	0.0	0.0	0.0	0.0	0.0	145.6551724137931	0.0	0.0329589	-0.045349005	1.01647689	4.83742	0.82404	-2.4415999999999998	3294023.0	1776544978.510814	0.0	1.0	-1.0	-1.0	-1.0	-1.0	-1.0	-1.0	-1.0	-1.0	0.0	marker	peace	Peace	26	0418
-68549.48999999999	-55515.825	-104761.215	-18509.489999999998	0.0	0.0	0.0	0.0	0.0	0.0	0.0	0.0	0.0	0.0	0.0	0.0	0.0	0.0	145.6551724137931	0.0	0.0329589	-0.045349005	1.01647689	4.83742	0.82404	-2.4415999999999998	3294024.0	1776544978.51083	0.0	1.0	-1.0	-1.0	-1.0	-1.0	-1.0	-1.0	-1.0	-1.0	0.0	marker	peace	Peace	26	0418
-68611.36499999999	-55512.72	-104833.125	-18584.01	0.0	0.0	0.0	0.0	0.0	0.0	0.0	0.0	0.0	0.0	0.0	0.0	0.0	0.0	145.6551724137931	0.0	0.0329589	-0.045349005	1.01647689	4.83742	0.82404	-2.4415999999999998	3294025.0	1776544978.514837	0.0	1.0	-1.0	-1.0	-1.0	-1.0	-1.0	-1.0	-1.0	-1.0	0.0	marker	peace	Peace	26	0418
-68585.985	-55502.865	-104823.72	-18561.195	0.0	0.0	0.0	0.0	0.0	0.0	0.0	0.0	0.0	0.0	0.0	0.0	0.0	0.0	145.6551724137931	0.0	0.0329589	-0.045349005	1.01647689	4.83742	0.82404	-2.4415999999999998	3294026.0	1776544978.514858	0.0	1.0	-1.0	-1.0	-1.0	-1.0	-1.0	-1.0	-1.0	-1.0	0.0	marker	peace	Peace	26	0418
-68635.665	-55508.805	-104872.05	-18597.239999999998	0.0	0.0	0.0	0.0	0.0	0.0	0.0	0.0	0.0	0.0	0.0	0.0	0.0	0.0	145.6551724137931	0.0	0.0329589	-0.045349005	1.01647689	4.83742	0.82404	-2.4415999999999998	3294027.0	1776544978.518911	0.0	1.0	-1.0	-1.0	-1.0	-1.0	-1.0	-1.0	-1.0	-1.0	0.0	marker	peace	Peace	26	0418
-68641.29	-55510.875	-104867.775	-18588.6	0.0	0.0	0.0	0.0	0.0	0.0	0.0	0.0	0.0	0.0	0.0	0.0	0.0	0.0	145.6551724137931	0.0	0.0329589	-0.045349005	1.01647689	4.83742	0.82404	-2.4415999999999998	3294028.0	1776544978.518939	0.0	1.0	-1.0	-1.0	-1.0	-1.0	-1.0	-1.0	-1.0	-1.0	0.0	marker	peace	Peace	26	0418
-68568.12	-55502.82	-104781.78	-18530.594999999998	0.0	0.0	0.0	0.0	0.0	0.0	0.0	0.0	0.0	0.0	0.0	0.0	0.0	0.0	145.6551724137931	0.0	0.0329589	-0.045349005	1.01647689	4.83742	0.82404	-2.4415999999999998	3294029.0	1776544978.522776	0.0	1.0	-1.0	-1.0	-1.0	-1.0	-1.0	-1.0	-1.0	-1.0	0.0	marker	peace	Peace	26	0418
-68594.715	-55496.52	-104796.855	-18569.25	0.0	0.0	0.0	0.0	0.0	0.0	0.0	0.0	0.0	0.0	0.0	0.0	0.0	0.0	145.6551724137931	0.0	0.0329589	-0.045349005	1.01647689	4.83742	0.82404	-2.4415999999999998	3294030.0	1776544978.522789	0.0	1.0	-1.0	-1.0	-1.0	-1.0	-1.0	-1.0	-1.0	-1.0	0.0	marker	peace	Peace	26	0418
-68595.255	-55497.509999999995	-104782.05	-18552.195	0.0	0.0	0.0	0.0	0.0	0.0	0.0	0.0	0.0	0.0	0.0	0.0	0.0	0.0	145.6551724137931	0.0	0.0329589	-0.045349005	1.01647689	4.83742	0.82404	-2.4415999999999998	3294031.0	1776544978.526865	0.0	1.0	-1.0	-1.0	-1.0	-1.0	-1.0	-1.0	-1.0	-1.0	0.0	marker	peace	Peace	26	0418
-68579.64	-55494.81	-104771.7	-18536.04	0.0	0.0	0.0	0.0	0.0	0.0	0.0	0.0	0.0	0.0	0.0	0.0	0.0	0.0	145.6551724137931	0.0	0.0329589	-0.045349005	1.01647689	4.83742	0.82404	-2.4415999999999998	3294032.0	1776544978.526878	0.0	1.0	-1.0	-1.0	-1.0	-1.0	-1.0	-1.0	-1.0	-1.0	0.0	marker	peace	Peace	26	0418
-68575.77	-55489.95	-104803.29	-18543.285	0.0	0.0	0.0	0.0	0.0	0.0	0.0	0.0	0.0	0.0	0.0	0.0	0.0	0.0	145.6551724137931	0.0	0.035034090000000004	-0.039855855	1.018979325	4.48644	1.17502	-1.4039199999999998	3294033.0	1776544978.530935	0.0	1.0	-1.0	-1.0	-1.0	-1.0	-1.0	-1.0	-1.0	-1.0	0.0	marker	peace	Peace	26	0418
-68593.59	-55485.72	-104838.48	-18572.94	0.0	0.0	0.0	0.0	0.0	0.0	0.0	0.0	0.0	0.0	0.0	0.0	0.0	0.0	145.6551724137931	0.0	0.035034090000000004	-0.039855855	1.018979325	4.48644	1.17502	-1.4039199999999998	3294034.0	1776544978.530949	0.0	1.0	-1.0	-1.0	-1.0	-1.0	-1.0	-1.0	-1.0	-1.0	0.0	marker	peace	Peace	26	0418
-68603.67	-55481.895	-104841.54	-18586.53	0.0	0.0	0.0	0.0	0.0	0.0	0.0	0.0	0.0	0.0	0.0	0.0	0.0	0.0	145.6551724137931	0.0	0.035034090000000004	-0.039855855	1.018979325	4.48644	1.17502	-1.4039199999999998	3294035.0	1776544978.534888	0.0	1.0	-1.0	-1.0	-1.0	-1.0	-1.0	-1.0	-1.0	-1.0	0.0	marker	peace	Peace	26	0418
-68595.61499999999	-55477.53	-104815.305	-18563.445	0.0	0.0	0.0	0.0	0.0	0.0	0.0	0.0	0.0	0.0	0.0	0.0	0.0	0.0	145.6551724137931	0.0	0.035034090000000004	-0.039855855	1.018979325	4.48644	1.17502	-1.4039199999999998	3294036.0	1776544978.534908	0.0	1.0	-1.0	-1.0	-1.0	-1.0	-1.0	-1.0	-1.0	-1.0	0.0	marker	peace	Peace	26	0418
-68577.795	-55478.34	-104791.545	-18541.35	0.0	0.0	0.0	0.0	0.0	0.0	0.0	0.0	0.0	0.0	0.0	0.0	0.0	0.0	145.6551724137931	0.0	0.035034090000000004	-0.039855855	1.018979325	4.48644	1.17502	-1.4039199999999998	3294037.0	1776544978.538833	0.0	1.0	-1.0	-1.0	-1.0	-1.0	-1.0	-1.0	-1.0	-1.0	0.0	marker	peace	Peace	26	0418
-68559.705	-55482.84	-104773.68	-18528.39	0.0	0.0	0.0	0.0	0.0	0.0	0.0	0.0	0.0	0.0	0.0	0.0	0.0	0.0	145.6551724137931	0.0	0.035034090000000004	-0.039855855	1.018979325	4.48644	1.17502	-1.4039199999999998	3294038.0	1776544978.538855	0.0	1.0	-1.0	-1.0	-1.0	-1.0	-1.0	-1.0	-1.0	-1.0	0.0	marker	peace	Peace	26	0418
-68584.14	-55483.965	-104788.215	-18546.975	0.0	0.0	0.0	0.0	0.0	0.0	0.0	0.0	0.0	0.0	0.0	0.0	0.0	0.0	145.6551724137931	0.0	0.035034090000000004	-0.039855855	1.018979325	4.48644	1.17502	-1.4039199999999998	3294039.0	1776544978.543697	0.0	1.0	-1.0	-1.0	-1.0	-1.0	-1.0	-1.0	-1.0	-1.0	0.0	marker	peace	Peace	26	0418
-68605.92	-55481.579999999994	-104802.345	-18549.045	0.0	0.0	0.0	0.0	0.0	0.0	0.0	0.0	0.0	0.0	0.0	0.0	0.0	0.0	145.6551724137931	0.0	0.035034090000000004	-0.039855855	1.018979325	4.48644	1.17502	-1.4039199999999998	3294040.0	1776544978.543713	0.0	1.0	-1.0	-1.0	-1.0	-1.0	-1.0	-1.0	-1.0	-1.0	0.0	marker	peace	Peace	26	0418
-68582.47499999999	-55477.665	-104789.34	-18537.21	0.0	0.0	0.0	0.0	0.0	0.0	0.0	0.0	0.0	0.0	0.0	0.0	0.0	0.0	145.6551724137931	0.0	0.035034090000000004	-0.039855855	1.018979325	4.48644	1.17502	-1.4039199999999998	3294041.0	1776544978.546944	0.0	1.0	-1.0	-1.0	-1.0	-1.0	-1.0	-1.0	-1.0	-1.0	0.0	marker	peace	Peace	26	0418
-68585.76	-55475.954999999994	-104789.34	-18547.515	0.0	0.0	0.0	0.0	0.0	0.0	0.0	0.0	0.0	0.0	0.0	0.0	0.0	0.0	145.6551724137931	0.0	0.035034090000000004	-0.039855855	1.018979325	4.48644	1.17502	-1.4039199999999998	3294042.0	1776544978.546959	0.0	1.0	-1.0	-1.0	-1.0	-1.0	-1.0	-1.0	-1.0	-1.0	0.0	marker	peace	Peace	26	0418
-68588.145	-55474.829999999994	-104805.9	-18555.255	0.0	0.0	0.0	0.0	0.0	0.0	0.0	0.0	0.0	0.0	0.0	0.0	0.0	0.0	145.6551724137931	0.0	0.03698721	-0.03527823	1.0141575600000001	3.64714	1.25132	-0.28994	3294043.0	1776544978.551115	0.0	1.0	-1.0	-1.0	-1.0	-1.0	-1.0	-1.0	-1.0	-1.0	0.0	marker	peace	Peace	26	0418
-68577.84	-55478.655	-104817.78	-18544.77	0.0	0.0	0.0	0.0	0.0	0.0	0.0	0.0	0.0	0.0	0.0	0.0	0.0	0.0	145.6551724137931	0.0	0.03698721	-0.03527823	1.0141575600000001	3.64714	1.25132	-0.28994	3294044.0	1776544978.551138	0.0	1.0	-1.0	-1.0	-1.0	-1.0	-1.0	-1.0	-1.0	-1.0	0.0	marker	peace	Peace	26	0418
-68524.785	-55482.84	-104774.84999999999	-18498.105	0.0	0.0	0.0	0.0	0.0	0.0	0.0	0.0	0.0	0.0	0.0	0.0	0.0	0.0	145.6551724137931	0.0	0.03698721	-0.03527823	1.0141575600000001	3.64714	1.25132	-0.28994	3294045.0	1776544978.555095	0.0	1.0	-1.0	-1.0	-1.0	-1.0	-1.0	-1.0	-1.0	-1.0	0.0	marker	peace	Peace	26	0418
-68506.83	-55494.36	-104746.995	-18498.51	0.0	0.0	0.0	0.0	0.0	0.0	0.0	0.0	0.0	0.0	0.0	0.0	0.0	0.0	145.6551724137931	0.0	0.03698721	-0.03527823	1.0141575600000001	3.64714	1.25132	-0.28994	3294046.0	1776544978.555138	0.0	1.0	-1.0	-1.0	-1.0	-1.0	-1.0	-1.0	-1.0	-1.0	0.0	marker	peace	Peace	26	0418
-68620.41	-55516.365	-104823.18	-18584.19	0.0	0.0	0.0	0.0	0.0	0.0	0.0	0.0	0.0	0.0	0.0	0.0	0.0	0.0	145.6551724137931	0.0	0.03698721	-0.03527823	1.0141575600000001	3.64714	1.25132	-0.28994	3294047.0	1776544978.559008	0.0	1.0	-1.0	-1.0	-1.0	-1.0	-1.0	-1.0	-1.0	-1.0	0.0	marker	peace	Peace	26	0418
-68602.275	-55521.225	-104801.89499999999	-18569.52	0.0	0.0	0.0	0.0	0.0	0.0	0.0	0.0	0.0	0.0	0.0	0.0	0.0	0.0	145.6551724137931	0.0	0.03698721	-0.03527823	1.0141575600000001	3.64714	1.25132	-0.28994	3294048.0	1776544978.559027	0.0	1.0	-1.0	-1.0	-1.0	-1.0	-1.0	-1.0	-1.0	-1.0	0.0	marker	peace	Peace	26	0418
-68572.89	-55513.89	-104768.90999999999	-18517.005	0.0	0.0	0.0	0.0	0.0	0.0	0.0	0.0	0.0	0.0	0.0	0.0	0.0	0.0	145.6551724137931	0.0	0.03698721	-0.03527823	1.0141575600000001	3.64714	1.25132	-0.28994	3294049.0	1776544978.564023	0.0	1.0	-1.0	-1.0	-1.0	-1.0	-1.0	-1.0	-1.0	-1.0	0.0	marker	peace	Peace	26	0418
-68586.93	-55497.329999999994	-104793.93	-18524.204999999998	0.0	0.0	0.0	0.0	0.0	0.0	0.0	0.0	0.0	0.0	0.0	0.0	0.0	0.0	145.6551724137931	0.0	0.03698721	-0.03527823	1.0141575600000001	3.64714	1.25132	-0.28994	3294050.0	1776544978.564056	0.0	1.0	-1.0	-1.0	-1.0	-1.0	-1.0	-1.0	-1.0	-1.0	0.0	marker	peace	Peace	26	0418
-68596.515	-55481.895	-104819.53499999999	-18551.835	0.0	0.0	0.0	0.0	0.0	0.0	0.0	0.0	0.0	0.0	0.0	0.0	0.0	0.0	145.6551724137931	0.0	0.03698721	-0.03527823	1.0141575600000001	3.64714	1.25132	-0.28994	3294051.0	1776544978.567066	0.0	1.0	-1.0	-1.0	-1.0	-1.0	-1.0	-1.0	-1.0	-1.0	0.0	marker	peace	Peace	26	0418
-68567.715	-55467.27	-104783.22	-18534.42	0.0	0.0	0.0	0.0	0.0	0.0	0.0	0.0	0.0	0.0	0.0	0.0	0.0	0.0	145.6551724137931	0.0	0.03698721	-0.03527823	1.0141575600000001	3.64714	1.25132	-0.28994	3294052.0	1776544978.567086	0.0	1.0	-1.0	-1.0	-1.0	-1.0	-1.0	-1.0	-1.0	-1.0	0.0	marker	peace	Peace	26	0418
-68540.94	-55451.655	-104748.61499999999	-18506.52	0.0	0.0	0.0	0.0	0.0	0.0	0.0	0.0	0.0	0.0	0.0	0.0	0.0	0.0	145.6551724137931	0.0	0.03478995	-0.035095125	1.01745345	3.76922	0.8392999999999999	-0.6867	3294053.0	1776544978.570981	0.0	1.0	-1.0	-1.0	-1.0	-1.0	-1.0	-1.0	-1.0	-1.0	0.0	marker	peace	Peace	26	0418
-68619.105	-55458.854999999996	-104829.705	-18568.53	0.0	0.0	0.0	0.0	0.0	0.0	0.0	0.0	0.0	0.0	0.0	0.0	0.0	0.0	145.6551724137931	0.0	0.03478995	-0.035095125	1.01745345	3.76922	0.8392999999999999	-0.6867	3294054.0	1776544978.571002	0.0	1.0	-1.0	-1.0	-1.0	-1.0	-1.0	-1.0	-1.0	-1.0	0.0	marker	peace	Peace	26	0418
-68621.58	-55465.02	-104820.165	-18574.11	0.0	0.0	0.0	0.0	0.0	0.0	0.0	0.0	0.0	0.0	0.0	0.0	0.0	0.0	145.6551724137931	0.0	0.03478995	-0.035095125	1.01745345	3.76922	0.8392999999999999	-0.6867	3294055.0	1776544978.57521	0.0	1.0	-1.0	-1.0	-1.0	-1.0	-1.0	-1.0	-1.0	-1.0	0.0	marker	peace	Peace	26	0418
-68592.23999999999	-55460.204999999994	-104781.78	-18557.235	0.0	0.0	0.0	0.0	0.0	0.0	0.0	0.0	0.0	0.0	0.0	0.0	0.0	0.0	145.6551724137931	0.0	0.03478995	-0.035095125	1.01745345	3.76922	0.8392999999999999	-0.6867	3294056.0	1776544978.575237	0.0	1.0	-1.0	-1.0	-1.0	-1.0	-1.0	-1.0	-1.0	-1.0	0.0	marker	peace	Peace	26	0418
-68579.595	-55461.195	-104784.97499999999	-18546.21	0.0	0.0	0.0	0.0	0.0	0.0	0.0	0.0	0.0	0.0	0.0	0.0	0.0	0.0	145.6551724137931	0.0	0.03478995	-0.035095125	1.01745345	3.76922	0.8392999999999999	-0.6867	3294057.0	1776544978.579124	0.0	1.0	-1.0	-1.0	-1.0	-1.0	-1.0	-1.0	-1.0	-1.0	0.0	marker	peace	Peace	26	0418
-68564.745	-55454.265	-104781.555	-18526.545	0.0	0.0	0.0	0.0	0.0	0.0	0.0	0.0	0.0	0.0	0.0	0.0	0.0	0.0	145.6551724137931	0.0	0.03478995	-0.035095125	1.01745345	3.76922	0.8392999999999999	-0.6867	3294058.0	1776544978.579146	0.0	1.0	-1.0	-1.0	-1.0	-1.0	-1.0	-1.0	-1.0	-1.0	0.0	marker	peace	Peace	26	0418
-68543.28	-55432.305	-104754.64499999999	-18505.079999999998	0.0	0.0	0.0	0.0	0.0	0.0	0.0	0.0	0.0	0.0	0.0	0.0	0.0	0.0	145.6551724137931	0.0	0.03478995	-0.035095125	1.01745345	3.76922	0.8392999999999999	-0.6867	3294059.0	1776544978.583182	0.0	1.0	-1.0	-1.0	-1.0	-1.0	-1.0	-1.0	-1.0	-1.0	0.0	marker	peace	Peace	26	0418
-68557.815	-55408.32	-104786.235	-18533.88	0.0	0.0	0.0	0.0	0.0	0.0	0.0	0.0	0.0	0.0	0.0	0.0	0.0	0.0	145.6551724137931	0.0	0.03478995	-0.035095125	1.01745345	3.76922	0.8392999999999999	-0.6867	3294060.0	1776544978.583203	0.0	1.0	-1.0	-1.0	-1.0	-1.0	-1.0	-1.0	-1.0	-1.0	0.0	marker	peace	Peace	26	0418
-68607.045	-55397.564999999995	-104832.405	-18568.305	0.0	0.0	0.0	0.0	0.0	0.0	0.0	0.0	0.0	0.0	0.0	0.0	0.0	0.0	145.6551724137931	0.0	0.03478995	-0.035095125	1.01745345	3.76922	0.8392999999999999	-0.6867	3294061.0	1776544978.587368	0.0	1.0	-1.0	-1.0	-1.0	-1.0	-1.0	-1.0	-1.0	-1.0	0.0	marker	peace	Peace	26	0418
-68625.0	-55395.63	-104823.45	-18562.815	0.0	0.0	0.0	0.0	0.0	0.0	0.0	0.0	0.0	0.0	0.0	0.0	0.0	0.0	145.6551724137931	0.0	0.03478995	-0.035095125	1.01745345	3.76922	0.8392999999999999	-0.6867	3294062.0	1776544978.587401	0.0	1.0	-1.0	-1.0	-1.0	-1.0	-1.0	-1.0	-1.0	-1.0	0.0	marker	peace	Peace	26	0418
-68591.7	-55401.795	-104800.59	-18566.145	0.0	0.0	0.0	0.0	0.0	0.0	0.0	0.0	0.0	0.0	0.0	0.0	0.0	0.0	145.6551724137931	0.0	0.029479905	-0.03491202	1.023007635	2.63998	0.15259999999999999	-0.44254	3294063.0	1776544978.592618	0.0	1.0	-1.0	-1.0	-1.0	-1.0	-1.0	-1.0	-1.0	-1.0	0.0	marker	peace	Peace	26	0418
-68571.315	-55409.4	-104785.37999999999	-18569.43	0.0	0.0	0.0	0.0	0.0	0.0	0.0	0.0	0.0	0.0	0.0	0.0	0.0	0.0	145.6551724137931	0.0	0.029479905	-0.03491202	1.023007635	2.63998	0.15259999999999999	-0.44254	3294064.0	1776544978.592638	0.0	1.0	-1.0	-1.0	-1.0	-1.0	-1.0	-1.0	-1.0	-1.0	0.0	marker	peace	Peace	26	0418
-68573.88	-55408.14	-104773.31999999999	-18530.055	0.0	0.0	0.0	0.0	0.0	0.0	0.0	0.0	0.0	0.0	0.0	0.0	0.0	0.0	145.6551724137931	0.0	0.029479905	-0.03491202	1.023007635	2.63998	0.15259999999999999	-0.44254	3294065.0	1776544978.600738	0.0	1.0	-1.0	-1.0	-1.0	-1.0	-1.0	-1.0	-1.0	-1.0	0.0	marker	peace	Peace	26	0418
-68587.69499999999	-55401.659999999996	-104797.53	-18530.145	0.0	0.0	0.0	0.0	0.0	0.0	0.0	0.0	0.0	0.0	0.0	0.0	0.0	0.0	145.6551724137931	0.0	0.029479905	-0.03491202	1.023007635	2.63998	0.15259999999999999	-0.44254	3294066.0	1776544978.600763	0.0	1.0	-1.0	-1.0	-1.0	-1.0	-1.0	-1.0	-1.0	-1.0	0.0	marker	peace	Peace	26	0418
-68589.09	-55393.064999999995	-104829.25499999999	-18550.485	0.0	0.0	0.0	0.0	0.0	0.0	0.0	0.0	0.0	0.0	0.0	0.0	0.0	0.0	145.6551724137931	0.0	0.029479905	-0.03491202	1.023007635	2.63998	0.15259999999999999	-0.44254	3294067.0	1776544978.600795	0.0	1.0	-1.0	-1.0	-1.0	-1.0	-1.0	-1.0	-1.0	-1.0	0.0	marker	peace	Peace	26	0418
-68597.37	-55392.659999999996	-104838.20999999999	-18562.32	0.0	0.0	0.0	0.0	0.0	0.0	0.0	0.0	0.0	0.0	0.0	0.0	0.0	0.0	145.6551724137931	0.0	0.029479905	-0.03491202	1.023007635	2.63998	0.15259999999999999	-0.44254	3294068.0	1776544978.600805	0.0	1.0	-1.0	-1.0	-1.0	-1.0	-1.0	-1.0	-1.0	-1.0	0.0	marker	peace	Peace	26	0418
-68576.4	-55392.975	-104810.04	-18554.175	0.0	0.0	0.0	0.0	0.0	0.0	0.0	0.0	0.0	0.0	0.0	0.0	0.0	0.0	145.6551724137931	0.0	0.029479905	-0.03491202	1.023007635	2.63998	0.15259999999999999	-0.44254	3294069.0	1776544978.603175	0.0	1.0	-1.0	-1.0	-1.0	-1.0	-1.0	-1.0	-1.0	-1.0	0.0	marker	peace	Peace	26	0418
-68557.77	-55400.13	-104789.97	-18558.36	0.0	0.0	0.0	0.0	0.0	0.0	0.0	0.0	0.0	0.0	0.0	0.0	0.0	0.0	145.6551724137931	0.0	0.029479905	-0.03491202	1.023007635	2.63998	0.15259999999999999	-0.44254	3294070.0	1776544978.603194	0.0	1.0	-1.0	-1.0	-1.0	-1.0	-1.0	-1.0	-1.0	-1.0	0.0	marker	peace	Peace	26	0418
-68592.645	-55408.454999999994	-104815.08	-18583.29	0.0	0.0	0.0	0.0	0.0	0.0	0.0	0.0	0.0	0.0	0.0	0.0	0.0	0.0	145.6551724137931	0.0	0.029479905	-0.03491202	1.023007635	2.63998	0.15259999999999999	-0.44254	3294071.0	1776544978.607213	0.0	1.0	-1.0	-1.0	-1.0	-1.0	-1.0	-1.0	-1.0	-1.0	0.0	marker	peace	Peace	26	0418
-68541.39	-55404.314999999995	-104760.09	-18511.785	0.0	0.0	0.0	0.0	0.0	0.0	0.0	0.0	0.0	0.0	0.0	0.0	0.0	0.0	145.6551724137931	0.0	0.029479905	-0.03491202	1.023007635	2.63998	0.15259999999999999	-0.44254	3294072.0	1776544978.607233	0.0	1.0	-1.0	-1.0	-1.0	-1.0	-1.0	-1.0	-1.0	-1.0	0.0	marker	peace	Peace	26	0418
-68572.935	-55395.72	-104793.93	-18534.555	0.0	0.0	0.0	0.0	0.0	0.0	0.0	0.0	0.0	0.0	0.0	0.0	0.0	0.0	145.6551724137931	0.0	0.02893059	-0.03601065	1.025937315	2.91466	-0.59514	0.03052	3294073.0	1776544978.611291	0.0	1.0	-1.0	-1.0	-1.0	-1.0	-1.0	-1.0	-1.0	-1.0	0.0	marker	peace	Peace	26	0418
-68605.605	-55388.79	-104805.54	-18539.055	0.0	0.0	0.0	0.0	0.0	0.0	0.0	0.0	0.0	0.0	0.0	0.0	0.0	0.0	145.6551724137931	0.0	0.02893059	-0.03601065	1.025937315	2.91466	-0.59514	0.03052	3294074.0	1776544978.611514	0.0	1.0	-1.0	-1.0	-1.0	-1.0	-1.0	-1.0	-1.0	-1.0	0.0	marker	peace	Peace	26	0418
-68507.595	-55383.39	-104725.125	-18469.844999999998	0.0	0.0	0.0	0.0	0.0	0.0	0.0	0.0	0.0	0.0	0.0	0.0	0.0	0.0	145.6551724137931	0.0	0.02893059	-0.03601065	1.025937315	2.91466	-0.59514	0.03052	3294075.0	1776544978.615655	0.0	1.0	-1.0	-1.0	-1.0	-1.0	-1.0	-1.0	-1.0	-1.0	0.0	marker	peace	Peace	26	0418
-68591.43	-55393.2	-104793.3	-18537.57	0.0	0.0	0.0	0.0	0.0	0.0	0.0	0.0	0.0	0.0	0.0	0.0	0.0	0.0	145.6551724137931	0.0	0.02893059	-0.03601065	1.025937315	2.91466	-0.59514	0.03052	3294076.0	1776544978.615715	0.0	1.0	-1.0	-1.0	-1.0	-1.0	-1.0	-1.0	-1.0	-1.0	0.0	marker	peace	Peace	26	0418
-68639.265	-55438.02	-104847.56999999999	-18576.36	0.0	0.0	0.0	0.0	0.0	0.0	0.0	0.0	0.0	0.0	0.0	0.0	0.0	0.0	145.6551724137931	0.0	0.02893059	-0.03601065	1.025937315	2.91466	-0.59514	0.03052	3294077.0	1776544978.619503	0.0	1.0	-1.0	-1.0	-1.0	-1.0	-1.0	-1.0	-1.0	-1.0	0.0	marker	peace	Peace	26	0418
-68613.93	-55469.52	-104829.165	-18563.579999999998	0.0	0.0	0.0	0.0	0.0	0.0	0.0	0.0	0.0	0.0	0.0	0.0	0.0	0.0	145.6551724137931	0.0	0.02893059	-0.03601065	1.025937315	2.91466	-0.59514	0.03052	3294078.0	1776544978.619525	0.0	1.0	-1.0	-1.0	-1.0	-1.0	-1.0	-1.0	-1.0	-1.0	0.0	marker	peace	Peace	26	0418
-68584.77	-55464.119999999995	-104790.555	-18543.915	0.0	0.0	0.0	0.0	0.0	0.0	0.0	0.0	0.0	0.0	0.0	0.0	0.0	0.0	145.6551724137931	0.0	0.02893059	-0.03601065	1.025937315	2.91466	-0.59514	0.03052	3294079.0	1776544978.623135	0.0	1.0	-1.0	-1.0	-1.0	-1.0	-1.0	-1.0	-1.0	-1.0	0.0	marker	peace	Peace	26	0418
-68585.22	-55456.29	-104795.28	-18539.64	0.0	0.0	0.0	0.0	0.0	0.0	0.0	0.0	0.0	0.0	0.0	0.0	0.0	0.0	145.6551724137931	0.0	0.02893059	-0.03601065	1.025937315	2.91466	-0.59514	0.03052	3294080.0	1776544978.623149	0.0	1.0	-1.0	-1.0	-1.0	-1.0	-1.0	-1.0	-1.0	-1.0	0.0	marker	peace	Peace	26	0418
-68579.145	-55452.869999999995	-104783.4	-18529.02	0.0	0.0	0.0	0.0	0.0	0.0	0.0	0.0	0.0	0.0	0.0	0.0	0.0	0.0	145.6551724137931	0.0	0.02893059	-0.03601065	1.025937315	2.91466	-0.59514	0.03052	3294081.0	1776544978.627149	0.0	1.0	-1.0	-1.0	-1.0	-1.0	-1.0	-1.0	-1.0	-1.0	0.0	marker	peace	Peace	26	0418
-68569.065	-55442.295	-104777.19	-18520.245	0.0	0.0	0.0	0.0	0.0	0.0	0.0	0.0	0.0	0.0	0.0	0.0	0.0	0.0	145.6551724137931	0.0	0.02893059	-0.03601065	1.025937315	2.91466	-0.59514	0.03052	3294082.0	1776544978.627159	0.0	1.0	-1.0	-1.0	-1.0	-1.0	-1.0	-1.0	-1.0	-1.0	0.0	marker	peace	Peace	26	0418
-68544.675	-55420.784999999996	-104763.33	-18496.17	0.0	0.0	0.0	0.0	0.0	0.0	0.0	0.0	0.0	0.0	0.0	0.0	0.0	0.0	145.6551724137931	0.0	0.03320304	-0.03820791	1.01830794	3.25038	-0.01526	-0.6103999999999999	3294083.0	1776544978.631192	0.0	1.0	-1.0	-1.0	-1.0	-1.0	-1.0	-1.0	-1.0	-1.0	0.0	marker	peace	Peace	26	0418
-68536.755	-55408.185	-104765.715	-18495.719999999998	0.0	0.0	0.0	0.0	0.0	0.0	0.0	0.0	0.0	0.0	0.0	0.0	0.0	0.0	145.6551724137931	0.0	0.03320304	-0.03820791	1.01830794	3.25038	-0.01526	-0.6103999999999999	3294084.0	1776544978.631208	0.0	1.0	-1.0	-1.0	-1.0	-1.0	-1.0	-1.0	-1.0	-1.0	0.0	marker	peace	Peace	26	0418
-68614.02	-55408.5	-104859.09	-18583.02	0.0	0.0	0.0	0.0	0.0	0.0	0.0	0.0	0.0	0.0	0.0	0.0	0.0	0.0	145.6551724137931	0.0	0.03320304	-0.03820791	1.01830794	3.25038	-0.01526	-0.6103999999999999	3294085.0	1776544978.635204	0.0	1.0	-1.0	-1.0	-1.0	-1.0	-1.0	-1.0	-1.0	-1.0	0.0	marker	peace	Peace	26	0418
-68617.755	-55420.2	-104844.59999999999	-18581.535	0.0	0.0	0.0	0.0	0.0	0.0	0.0	0.0	0.0	0.0	0.0	0.0	0.0	0.0	145.6551724137931	0.0	0.03320304	-0.03820791	1.01830794	3.25038	-0.01526	-0.6103999999999999	3294086.0	1776544978.63523	0.0	1.0	-1.0	-1.0	-1.0	-1.0	-1.0	-1.0	-1.0	-1.0	0.0	marker	peace	Peace	26	0418
-68587.83	-55437.21	-104769.0	-18545.94	0.0	0.0	0.0	0.0	0.0	0.0	0.0	0.0	0.0	0.0	0.0	0.0	0.0	0.0	145.6551724137931	0.0	0.03320304	-0.03820791	1.01830794	3.25038	-0.01526	-0.6103999999999999	3294087.0	1776544978.639249	0.0	1.0	-1.0	-1.0	-1.0	-1.0	-1.0	-1.0	-1.0	-1.0	0.0	marker	peace	Peace	26	0418
-68592.51	-55445.895	-104776.47	-18548.28	0.0	0.0	0.0	0.0	0.0	0.0	0.0	0.0	0.0	0.0	0.0	0.0	0.0	0.0	145.6551724137931	0.0	0.03320304	-0.03820791	1.01830794	3.25038	-0.01526	-0.6103999999999999	3294088.0	1776544978.639258	0.0	1.0	-1.0	-1.0	-1.0	-1.0	-1.0	-1.0	-1.0	-1.0	0.0	marker	peace	Peace	26	0418
-68575.455	-55443.15	-104772.42	-18525.239999999998	0.0	0.0	0.0	0.0	0.0	0.0	0.0	0.0	0.0	0.0	0.0	0.0	0.0	0.0	145.6551724137931	0.0	0.03320304	-0.03820791	1.01830794	3.25038	-0.01526	-0.6103999999999999	3294089.0	1776544978.645534	0.0	1.0	-1.0	-1.0	-1.0	-1.0	-1.0	-1.0	-1.0	-1.0	0.0	marker	peace	Peace	26	0418
-68576.4	-55441.305	-104770.53	-18520.245	0.0	0.0	0.0	0.0	0.0	0.0	0.0	0.0	0.0	0.0	0.0	0.0	0.0	0.0	145.6551724137931	0.0	0.03320304	-0.03820791	1.01830794	3.25038	-0.01526	-0.6103999999999999	3294090.0	1776544978.645553	0.0	1.0	-1.0	-1.0	-1.0	-1.0	-1.0	-1.0	-1.0	-1.0	0.0	marker	peace	Peace	26	0418
-68594.13	-55443.465	-104790.105	-18528.075	0.0	0.0	0.0	0.0	0.0	0.0	0.0	0.0	0.0	0.0	0.0	0.0	0.0	0.0	145.6551724137931	0.0	0.03320304	-0.03820791	1.01830794	3.25038	-0.01526	-0.6103999999999999	3294091.0	1776544978.647242	0.0	1.0	-1.0	-1.0	-1.0	-1.0	-1.0	-1.0	-1.0	-1.0	0.0	marker	peace	Peace	26	0418
-68575.905	-55444.59	-104777.81999999999	-18532.17	0.0	0.0	0.0	0.0	0.0	0.0	0.0	0.0	0.0	0.0	0.0	0.0	0.0	0.0	145.6551724137931	0.0	0.03320304	-0.03820791	1.01830794	3.25038	-0.01526	-0.6103999999999999	3294092.0	1776544978.647257	0.0	1.0	-1.0	-1.0	-1.0	-1.0	-1.0	-1.0	-1.0	-1.0	0.0	marker	peace	Peace	26	0418
-68579.595	-55450.89	-104805.72	-18551.204999999998	0.0	0.0	0.0	0.0	0.0	0.0	0.0	0.0	0.0	0.0	0.0	0.0	0.0	0.0	145.6551724137931	0.0	0.035827545	-0.039977925	1.01244858	3.3571999999999997	0.5341	-0.88508	3294093.0	1776544978.651439	0.0	1.0	-1.0	-1.0	-1.0	-1.0	-1.0	-1.0	-1.0	-1.0	0.0	marker	peace	Peace	26	0418
-68603.895	-55455.795	-104850.22499999999	-18575.954999999998	0.0	0.0	0.0	0.0	0.0	0.0	0.0	0.0	0.0	0.0	0.0	0.0	0.0	0.0	145.6551724137931	0.0	0.035827545	-0.039977925	1.01244858	3.3571999999999997	0.5341	-0.88508	3294094.0	1776544978.65148	0.0	1.0	-1.0	-1.0	-1.0	-1.0	-1.0	-1.0	-1.0	-1.0	0.0	marker	peace	Peace	26	0418
-68520.78	-55443.284999999996	-104746.14	-18485.37	0.0	0.0	0.0	0.0	0.0	0.0	0.0	0.0	0.0	0.0	0.0	0.0	0.0	0.0	145.6551724137931	0.0	0.035827545	-0.039977925	1.01244858	3.3571999999999997	0.5341	-0.88508	3294095.0	1776544978.658245	0.0	1.0	-1.0	-1.0	-1.0	-1.0	-1.0	-1.0	-1.0	-1.0	0.0	marker	peace	Peace	26	0418
-68509.395	-55437.704999999994	-104724.36	-18484.739999999998	0.0	0.0	0.0	0.0	0.0	0.0	0.0	0.0	0.0	0.0	0.0	0.0	0.0	0.0	145.6551724137931	0.0	0.035827545	-0.039977925	1.01244858	3.3571999999999997	0.5341	-0.88508	3294096.0	1776544978.658265	0.0	1.0	-1.0	-1.0	-1.0	-1.0	-1.0	-1.0	-1.0	-1.0	0.0	marker	peace	Peace	26	0418
-68585.48999999999	-55443.42	-104782.05	-18550.755	0.0	0.0	0.0	0.0	0.0	0.0	0.0	0.0	0.0	0.0	0.0	0.0	0.0	0.0	145.6551724137931	0.0	0.035827545	-0.039977925	1.01244858	3.3571999999999997	0.5341	-0.88508	3294097.0	1776544978.660892	0.0	1.0	-1.0	-1.0	-1.0	-1.0	-1.0	-1.0	-1.0	-1.0	0.0	marker	peace	Peace	26	0418
-68615.955	-55446.479999999996	-104836.23	-18574.2	0.0	0.0	0.0	0.0	0.0	0.0	0.0	0.0	0.0	0.0	0.0	0.0	0.0	0.0	145.6551724137931	0.0	0.035827545	-0.039977925	1.01244858	3.3571999999999997	0.5341	-0.88508	3294098.0	1776544978.660907	0.0	1.0	-1.0	-1.0	-1.0	-1.0	-1.0	-1.0	-1.0	-1.0	0.0	marker	peace	Peace	26	0418
-68618.25	-55444.005	-104855.48999999999	-18586.98	0.0	0.0	0.0	0.0	0.0	0.0	0.0	0.0	0.0	0.0	0.0	0.0	0.0	0.0	145.6551724137931	0.0	0.035827545	-0.039977925	1.01244858	3.3571999999999997	0.5341	-0.88508	3294099.0	1776544978.663254	0.0	1.0	-1.0	-1.0	-1.0	-1.0	-1.0	-1.0	-1.0	-1.0	0.0	marker	peace	Peace	26	0418
-68604.75	-55432.89	-104809.815	-18558.18	0.0	0.0	0.0	0.0	0.0	0.0	0.0	0.0	0.0	0.0	0.0	0.0	0.0	0.0	145.6551724137931	0.0	0.035827545	-0.039977925	1.01244858	3.3571999999999997	0.5341	-0.88508	3294100.0	1776544978.663264	0.0	1.0	-1.0	-1.0	-1.0	-1.0	-1.0	-1.0	-1.0	-1.0	0.0	marker	peace	Peace	26	0418
-68593.77	-55426.365	-104803.92	-18540.899999999998	0.0	0.0	0.0	0.0	0.0	0.0	0.0	0.0	0.0	0.0	0.0	0.0	0.0	0.0	145.6551724137931	0.0	0.035827545	-0.039977925	1.01244858	3.3571999999999997	0.5341	-0.88508	3294101.0	1776544978.667482	0.0	1.0	-1.0	-1.0	-1.0	-1.0	-1.0	-1.0	-1.0	-1.0	0.0	marker	peace	Peace	26	0418
-68574.555	-55417.634999999995	-104795.685	-18521.684999999998	0.0	0.0	0.0	0.0	0.0	0.0	0.0	0.0	0.0	0.0	0.0	0.0	0.0	0.0	145.6551724137931	0.0	0.035827545	-0.039977925	1.01244858	3.3571999999999997	0.5341	-0.88508	3294102.0	1776544978.667508	0.0	1.0	-1.0	-1.0	-1.0	-1.0	-1.0	-1.0	-1.0	-1.0	0.0	marker	peace	Peace	26	0418
-68570.64	-55420.92	-104786.73	-18524.925	0.0	0.0	0.0	0.0	0.0	0.0	0.0	0.0	0.0	0.0	0.0	0.0	0.0	0.0	145.6551724137931	0.0	0.03259269	-0.035949615	1.01098374	2.7468	0.88508	-0.56462	3294103.0	1776544978.671462	0.0	1.0	-1.0	-1.0	-1.0	-1.0	-1.0	-1.0	-1.0	-1.0	0.0	marker	peace	Peace	26	0418
-68583.015	-55426.005	-104776.605	-18533.295	0.0	0.0	0.0	0.0	0.0	0.0	0.0	0.0	0.0	0.0	0.0	0.0	0.0	0.0	145.6551724137931	0.0	0.03259269	-0.035949615	1.01098374	2.7468	0.88508	-0.56462	3294104.0	1776544978.671481	0.0	1.0	-1.0	-1.0	-1.0	-1.0	-1.0	-1.0	-1.0	-1.0	0.0	marker	peace	Peace	26	0418
-68565.19499999999	-55434.465	-104752.485	-18523.125	0.0	0.0	0.0	0.0	0.0	0.0	0.0	0.0	0.0	0.0	0.0	0.0	0.0	0.0	145.6551724137931	0.0	0.03259269	-0.035949615	1.01098374	2.7468	0.88508	-0.56462	3294105.0	1776544978.675389	0.0	1.0	-1.0	-1.0	-1.0	-1.0	-1.0	-1.0	-1.0	-1.0	0.0	marker	peace	Peace	26	0418
-68568.255	-55433.564999999995	-104775.75	-18530.145	0.0	0.0	0.0	0.0	0.0	0.0	0.0	0.0	0.0	0.0	0.0	0.0	0.0	0.0	145.6551724137931	0.0	0.03259269	-0.035949615	1.01098374	2.7468	0.88508	-0.56462	3294106.0	1776544978.675407	0.0	1.0	-1.0	-1.0	-1.0	-1.0	-1.0	-1.0	-1.0	-1.0	0.0	marker	peace	Peace	26	0418
-68582.06999999999	-55414.979999999996	-104810.44499999999	-18535.32	0.0	0.0	0.0	0.0	0.0	0.0	0.0	0.0	0.0	0.0	0.0	0.0	0.0	0.0	145.6551724137931	0.0	0.03259269	-0.035949615	1.01098374	2.7468	0.88508	-0.56462	3294107.0	1776544978.679788	0.0	1.0	-1.0	-1.0	-1.0	-1.0	-1.0	-1.0	-1.0	-1.0	0.0	marker	peace	Peace	26	0418
-68598.09	-55399.005	-104834.205	-18554.715	0.0	0.0	0.0	0.0	0.0	0.0	0.0	0.0	0.0	0.0	0.0	0.0	0.0	0.0	145.6551724137931	0.0	0.03259269	-0.035949615	1.01098374	2.7468	0.88508	-0.56462	3294108.0	1776544978.679807	0.0	1.0	-1.0	-1.0	-1.0	-1.0	-1.0	-1.0	-1.0	-1.0	0.0	marker	peace	Peace	26	0418
-68589.94499999999	-55398.375	-104838.165	-18569.925	0.0	0.0	0.0	0.0	0.0	0.0	0.0	0.0	0.0	0.0	0.0	0.0	0.0	0.0	145.6551724137931	0.0	0.03259269	-0.035949615	1.01098374	2.7468	0.88508	-0.56462	3294109.0	1776544978.683491	0.0	1.0	-1.0	-1.0	-1.0	-1.0	-1.0	-1.0	-1.0	-1.0	0.0	marker	peace	Peace	26	0418
-68581.8	-55394.954999999994	-104824.44	-18564.075	0.0	0.0	0.0	0.0	0.0	0.0	0.0	0.0	0.0	0.0	0.0	0.0	0.0	0.0	145.6551724137931	0.0	0.03259269	-0.035949615	1.01098374	2.7468	0.88508	-0.56462	3294110.0	1776544978.683534	0.0	1.0	-1.0	-1.0	-1.0	-1.0	-1.0	-1.0	-1.0	-1.0	0.0	marker	peace	Peace	26	0418
-68596.875	-55387.755	-104826.87	-18570.555	0.0	0.0	0.0	0.0	0.0	0.0	0.0	0.0	0.0	0.0	0.0	0.0	0.0	0.0	145.6551724137931	0.0	0.03259269	-0.035949615	1.01098374	2.7468	0.88508	-0.56462	3294111.0	1776544978.687512	0.0	1.0	-1.0	-1.0	-1.0	-1.0	-1.0	-1.0	-1.0	-1.0	0.0	marker	peace	Peace	26	0418
-68597.685	-55384.47	-104820.25499999999	-18559.035	0.0	0.0	0.0	0.0	0.0	0.0	0.0	0.0	0.0	0.0	0.0	0.0	0.0	0.0	145.6551724137931	0.0	0.03259269	-0.035949615	1.01098374	2.7468	0.88508	-0.56462	3294112.0	1776544978.687541	0.0	1.0	-1.0	-1.0	-1.0	-1.0	-1.0	-1.0	-1.0	-1.0	0.0	marker	peace	Peace	26	0418
-68592.825	-55402.74	-104802.75	-18545.76	0.0	0.0	0.0	0.0	0.0	0.0	0.0	0.0	0.0	0.0	0.0	0.0	0.0	0.0	145.6551724137931	0.0	0.035949615	-0.035034090000000004	1.012143405	2.0295799999999997	1.2055399999999998	-0.21364	3294113.0	1776544978.691442	0.0	1.0	-1.0	-1.0	-1.0	-1.0	-1.0	-1.0	-1.0	-1.0	0.0	marker	peace	Peace	26	0418
-68599.215	-55432.395	-104795.415	-18539.954999999998	0.0	0.0	0.0	0.0	0.0	0.0	0.0	0.0	0.0	0.0	0.0	0.0	0.0	0.0	145.6551724137931	0.0	0.035949615	-0.035034090000000004	1.012143405	2.0295799999999997	1.2055399999999998	-0.21364	3294114.0	1776544978.691454	0.0	1.0	-1.0	-1.0	-1.0	-1.0	-1.0	-1.0	-1.0	-1.0	0.0	marker	peace	Peace	26	0418
-68589.09	-55427.939999999995	-104790.42	-18531.54	0.0	0.0	0.0	0.0	0.0	0.0	0.0	0.0	0.0	0.0	0.0	0.0	0.0	0.0	145.6551724137931	0.0	0.035949615	-0.035034090000000004	1.012143405	2.0295799999999997	1.2055399999999998	-0.21364	3294115.0	1776544978.695478	0.0	1.0	-1.0	-1.0	-1.0	-1.0	-1.0	-1.0	-1.0	-1.0	0.0	marker	peace	Peace	26	0418
-68572.98	-55420.74	-104795.28	-18526.05	0.0	0.0	0.0	0.0	0.0	0.0	0.0	0.0	0.0	0.0	0.0	0.0	0.0	0.0	145.6551724137931	0.0	0.035949615	-0.035034090000000004	1.012143405	2.0295799999999997	1.2055399999999998	-0.21364	3294116.0	1776544978.695492	0.0	1.0	-1.0	-1.0	-1.0	-1.0	-1.0	-1.0	-1.0	-1.0	0.0	marker	peace	Peace	26	0418
-68502.465	-55410.345	-104762.97	-18505.665	0.0	0.0	0.0	0.0	0.0	0.0	0.0	0.0	0.0	0.0	0.0	0.0	0.0	0.0	145.6551724137931	0.0	0.035949615	-0.035034090000000004	1.012143405	2.0295799999999997	1.2055399999999998	-0.21364	3294117.0	1776544978.699593	0.0	1.0	-1.0	-1.0	-1.0	-1.0	-1.0	-1.0	-1.0	-1.0	0.0	marker	peace	Peace	26	0418
-68571.58499999999	-55416.24	-104832.675	-18569.88	0.0	0.0	0.0	0.0	0.0	0.0	0.0	0.0	0.0	0.0	0.0	0.0	0.0	0.0	145.6551724137931	0.0	0.035949615	-0.035034090000000004	1.012143405	2.0295799999999997	1.2055399999999998	-0.21364	3294118.0	1776544978.699617	0.0	1.0	-1.0	-1.0	-1.0	-1.0	-1.0	-1.0	-1.0	-1.0	0.0	marker	peace	Peace	26	0418
-68621.625	-55416.915	-104858.415	-18599.04	0.0	0.0	0.0	0.0	0.0	0.0	0.0	0.0	0.0	0.0	0.0	0.0	0.0	0.0	145.6551724137931	0.0	0.035949615	-0.035034090000000004	1.012143405	2.0295799999999997	1.2055399999999998	-0.21364	3294119.0	1776544978.703484	0.0	1.0	-1.0	-1.0	-1.0	-1.0	-1.0	-1.0	-1.0	-1.0	0.0	marker	peace	Peace	26	0418
-68600.745	-55410.975	-104832.26999999999	-18545.94	0.0	0.0	0.0	0.0	0.0	0.0	0.0	0.0	0.0	0.0	0.0	0.0	0.0	0.0	145.6551724137931	0.0	0.035949615	-0.035034090000000004	1.012143405	2.0295799999999997	1.2055399999999998	-0.21364	3294120.0	1776544978.703496	0.0	1.0	-1.0	-1.0	-1.0	-1.0	-1.0	-1.0	-1.0	-1.0	0.0	marker	peace	Peace	26	0418
-68585.22	-55411.29	-104798.565	-18525.78	0.0	0.0	0.0	0.0	0.0	0.0	0.0	0.0	0.0	0.0	0.0	0.0	0.0	0.0	145.6551724137931	0.0	0.035949615	-0.035034090000000004	1.012143405	2.0295799999999997	1.2055399999999998	-0.21364	3294121.0	1776544978.707506	0.0	1.0	-1.0	-1.0	-1.0	-1.0	-1.0	-1.0	-1.0	-1.0	0.0	marker	peace	Peace	26	0418
-68590.305	-55362.509999999995	-104784.25499999999	-18520.155	0.0	0.0	0.0	0.0	0.0	0.0	0.0	0.0	0.0	0.0	0.0	0.0	0.0	0.0	145.6551724137931	0.0	0.035949615	-0.035034090000000004	1.012143405	2.0295799999999997	1.2055399999999998	-0.21364	3294122.0	1776544978.707522	0.0	1.0	-1.0	-1.0	-1.0	-1.0	-1.0	-1.0	-1.0	-1.0	0.0	marker	peace	Peace	26	0418
-68557.185	-55271.34	-104766.12	-18497.745	0.0	0.0	0.0	0.0	0.0	0.0	0.0	0.0	0.0	0.0	0.0	0.0	0.0	0.0	145.6551724137931	0.0	0.034606845	-0.039001365	1.01611068	3.37246	0.9919	-0.59514	3294123.0	1776544978.71144	0.0	1.0	-1.0	-1.0	-1.0	-1.0	-1.0	-1.0	-1.0	-1.0	0.0	marker	peace	Peace	26	0418
-68571.045	-55270.845	-104790.95999999999	-18528.84	0.0	0.0	0.0	0.0	0.0	0.0	0.0	0.0	0.0	0.0	0.0	0.0	0.0	0.0	145.6551724137931	0.0	0.034606845	-0.039001365	1.01611068	3.37246	0.9919	-0.59514	3294124.0	1776544978.711454	0.0	1.0	-1.0	-1.0	-1.0	-1.0	-1.0	-1.0	-1.0	-1.0	0.0	marker	peace	Peace	26	0418
-68619.78	-55287.494999999995	-104841.9	-18579.825	0.0	0.0	0.0	0.0	0.0	0.0	0.0	0.0	0.0	0.0	0.0	0.0	0.0	0.0	145.6551724137931	0.0	0.034606845	-0.039001365	1.01611068	3.37246	0.9919	-0.59514	3294125.0	1776544978.715529	0.0	1.0	-1.0	-1.0	-1.0	-1.0	-1.0	-1.0	-1.0	-1.0	0.0	marker	peace	Peace	26	0418
-68611.185	-55297.845	-104829.56999999999	-18569.295	0.0	0.0	0.0	0.0	0.0	0.0	0.0	0.0	0.0	0.0	0.0	0.0	0.0	0.0	145.6551724137931	0.0	0.034606845	-0.039001365	1.01611068	3.37246	0.9919	-0.59514	3294126.0	1776544978.715547	0.0	1.0	-1.0	-1.0	-1.0	-1.0	-1.0	-1.0	-1.0	-1.0	0.0	marker	peace	Peace	26	0418
-68602.545	-55298.655	-104821.73999999999	-18558.719999999998	0.0	0.0	0.0	0.0	0.0	0.0	0.0	0.0	0.0	0.0	0.0	0.0	0.0	0.0	145.6551724137931	0.0	0.034606845	-0.039001365	1.01611068	3.37246	0.9919	-0.59514	3294127.0	1776544978.719601	0.0	1.0	-1.0	-1.0	-1.0	-1.0	-1.0	-1.0	-1.0	-1.0	0.0	marker	peace	Peace	26	0418
-68591.47499999999	-55299.825	-104816.385	-18554.579999999998	0.0	0.0	0.0	0.0	0.0	0.0	0.0	0.0	0.0	0.0	0.0	0.0	0.0	0.0	145.6551724137931	0.0	0.034606845	-0.039001365	1.01611068	3.37246	0.9919	-0.59514	3294128.0	1776544978.719629	0.0	1.0	-1.0	-1.0	-1.0	-1.0	-1.0	-1.0	-1.0	-1.0	0.0	marker	peace	Peace	26	0418
-68598.54	-55298.744999999995	-104816.06999999999	-18553.815	0.0	0.0	0.0	0.0	0.0	0.0	0.0	0.0	0.0	0.0	0.0	0.0	0.0	0.0	145.6551724137931	0.0	0.034606845	-0.039001365	1.01611068	3.37246	0.9919	-0.59514	3294129.0	1776544978.72356	0.0	1.0	-1.0	-1.0	-1.0	-1.0	-1.0	-1.0	-1.0	-1.0	0.0	marker	peace	Peace	26	0418
-68597.01	-55297.619999999995	-104797.485	-18540.989999999998	0.0	0.0	0.0	0.0	0.0	0.0	0.0	0.0	0.0	0.0	0.0	0.0	0.0	0.0	145.6551724137931	0.0	0.034606845	-0.039001365	1.01611068	3.37246	0.9919	-0.59514	3294130.0	1776544978.723573	0.0	1.0	-1.0	-1.0	-1.0	-1.0	-1.0	-1.0	-1.0	-1.0	0.0	marker	peace	Peace	26	0418
-68566.995	-55295.325	-104770.845	-18529.02	0.0	0.0	0.0	0.0	0.0	0.0	0.0	0.0	0.0	0.0	0.0	0.0	0.0	0.0	145.6551724137931	0.0	0.034606845	-0.039001365	1.01611068	3.37246	0.9919	-0.59514	3294131.0	1776544978.727535	0.0	1.0	-1.0	-1.0	-1.0	-1.0	-1.0	-1.0	-1.0	-1.0	0.0	marker	peace	Peace	26	0418
-68561.685	-55279.845	-104779.39499999999	-18519.344999999998	0.0	0.0	0.0	0.0	0.0	0.0	0.0	0.0	0.0	0.0	0.0	0.0	0.0	0.0	145.6551724137931	0.0	0.034606845	-0.039001365	1.01611068	3.37246	0.9919	-0.59514	3294132.0	1776544978.727545	0.0	1.0	-1.0	-1.0	-1.0	-1.0	-1.0	-1.0	-1.0	-1.0	0.0	marker	peace	Peace	26	0418
-68529.645	-55264.68	-104756.985	-18486.495	0.0	0.0	0.0	0.0	0.0	0.0	0.0	0.0	0.0	0.0	0.0	0.0	0.0	0.0	145.6551724137931	0.0	0.03478995	-0.03710928	1.018979325	2.35004	0.6409199999999999	-0.10682	3294133.0	1776544978.731585	0.0	1.0	-1.0	-1.0	-1.0	-1.0	-1.0	-1.0	-1.0	-1.0	0.0	marker	peace	Peace	26	0418
-68528.25	-55269.945	-104769.855	-18496.71	0.0	0.0	0.0	0.0	0.0	0.0	0.0	0.0	0.0	0.0	0.0	0.0	0.0	0.0	145.6551724137931	0.0	0.03478995	-0.03710928	1.018979325	2.35004	0.6409199999999999	-0.10682	3294134.0	1776544978.731618	0.0	1.0	-1.0	-1.0	-1.0	-1.0	-1.0	-1.0	-1.0	-1.0	0.0	marker	peace	Peace	26	0418
-68630.04	-55278.63	-104863.76999999999	-18583.335	0.0	0.0	0.0	0.0	0.0	0.0	0.0	0.0	0.0	0.0	0.0	0.0	0.0	0.0	145.6551724137931	0.0	0.03478995	-0.03710928	1.018979325	2.35004	0.6409199999999999	-0.10682	3294135.0	1776544978.735669	0.0	1.0	-1.0	-1.0	-1.0	-1.0	-1.0	-1.0	-1.0	-1.0	0.0	marker	peace	Peace	26	0418
-68623.73999999999	-55279.53	-104819.53499999999	-18576.09	0.0	0.0	0.0	0.0	0.0	0.0	0.0	0.0	0.0	0.0	0.0	0.0	0.0	0.0	145.6551724137931	0.0	0.03478995	-0.03710928	1.018979325	2.35004	0.6409199999999999	-0.10682	3294136.0	1776544978.73569	0.0	1.0	-1.0	-1.0	-1.0	-1.0	-1.0	-1.0	-1.0	-1.0	0.0	marker	peace	Peace	26	0418
-68603.265	-55283.579999999994	-104786.73	-18553.68	0.0	0.0	0.0	0.0	0.0	0.0	0.0	0.0	0.0	0.0	0.0	0.0	0.0	0.0	145.6551724137931	0.0	0.03478995	-0.03710928	1.018979325	2.35004	0.6409199999999999	-0.10682	3294137.0	1776544978.739512	0.0	1.0	-1.0	-1.0	-1.0	-1.0	-1.0	-1.0	-1.0	-1.0	0.0	marker	peace	Peace	26	0418
-68581.53	-55282.994999999995	-104801.53499999999	-18551.43	0.0	0.0	0.0	0.0	0.0	0.0	0.0	0.0	0.0	0.0	0.0	0.0	0.0	0.0	145.6551724137931	0.0	0.03478995	-0.03710928	1.018979325	2.35004	0.6409199999999999	-0.10682	3294138.0	1776544978.739537	0.0	1.0	-1.0	-1.0	-1.0	-1.0	-1.0	-1.0	-1.0	-1.0	0.0	marker	peace	Peace	26	0418
-68586.20999999999	-55277.009999999995	-104821.01999999999	-18555.57	0.0	0.0	0.0	0.0	0.0	0.0	0.0	0.0	0.0	0.0	0.0	0.0	0.0	0.0	145.6551724137931	0.0	0.03478995	-0.03710928	1.018979325	2.35004	0.6409199999999999	-0.10682	3294139.0	1776544978.750143	0.0	1.0	-1.0	-1.0	-1.0	-1.0	-1.0	-1.0	-1.0	-1.0	0.0	marker	peace	Peace	26	0418
-68602.5	-55266.884999999995	-104809.00499999999	-18547.2	0.0	0.0	0.0	0.0	0.0	0.0	0.0	0.0	0.0	0.0	0.0	0.0	0.0	0.0	145.6551724137931	0.0	0.03478995	-0.03710928	1.018979325	2.35004	0.6409199999999999	-0.10682	3294140.0	1776544978.750168	0.0	1.0	-1.0	-1.0	-1.0	-1.0	-1.0	-1.0	-1.0	-1.0	0.0	marker	peace	Peace	26	0418
-68594.04	-55271.88	-104797.98	-18548.774999999998	0.0	0.0	0.0	0.0	0.0	0.0	0.0	0.0	0.0	0.0	0.0	0.0	0.0	0.0	145.6551724137931	0.0	0.03478995	-0.03710928	1.018979325	2.35004	0.6409199999999999	-0.10682	3294141.0	1776544978.750203	0.0	1.0	-1.0	-1.0	-1.0	-1.0	-1.0	-1.0	-1.0	-1.0	0.0	marker	peace	Peace	26	0418
-68603.84999999999	-55282.185	-104830.47	-18564.255	0.0	0.0	0.0	0.0	0.0	0.0	0.0	0.0	0.0	0.0	0.0	0.0	0.0	0.0	145.6551724137931	0.0	0.03478995	-0.03710928	1.018979325	2.35004	0.6409199999999999	-0.10682	3294142.0	1776544978.75022	0.0	1.0	-1.0	-1.0	-1.0	-1.0	-1.0	-1.0	-1.0	-1.0	0.0	marker	peace	Peace	26	0418
-68583.87	-55296.765	-104823.405	-18550.395	0.0	0.0	0.0	0.0	0.0	0.0	0.0	0.0	0.0	0.0	0.0	0.0	0.0	0.0	145.6551724137931	0.0	0.03076164	-0.036926175	1.022153145	2.8230999999999997	0.19838	0.33571999999999996	3294143.0	1776544978.751619	0.0	1.0	-1.0	-1.0	-1.0	-1.0	-1.0	-1.0	-1.0	-1.0	0.0	marker	peace	Peace	26	0418
-68534.37	-55307.115	-104780.295	-18496.44	0.0	0.0	0.0	0.0	0.0	0.0	0.0	0.0	0.0	0.0	0.0	0.0	0.0	0.0	145.6551724137931	0.0	0.03076164	-0.036926175	1.022153145	2.8230999999999997	0.19838	0.33571999999999996	3294144.0	1776544978.751629	0.0	1.0	-1.0	-1.0	-1.0	-1.0	-1.0	-1.0	-1.0	-1.0	0.0	marker	peace	Peace	26	0418
-68563.89	-55320.615	-104788.53	-18519.975	0.0	0.0	0.0	0.0	0.0	0.0	0.0	0.0	0.0	0.0	0.0	0.0	0.0	0.0	145.6551724137931	0.0	0.03076164	-0.036926175	1.022153145	2.8230999999999997	0.19838	0.33571999999999996	3294145.0	1776544978.755667	0.0	1.0	-1.0	-1.0	-1.0	-1.0	-1.0	-1.0	-1.0	-1.0	0.0	marker	peace	Peace	26	0418
-68601.105	-55329.975	-104818.275	-18557.055	0.0	0.0	0.0	0.0	0.0	0.0	0.0	0.0	0.0	0.0	0.0	0.0	0.0	0.0	145.6551724137931	0.0	0.03076164	-0.036926175	1.022153145	2.8230999999999997	0.19838	0.33571999999999996	3294146.0	1776544978.755717	0.0	1.0	-1.0	-1.0	-1.0	-1.0	-1.0	-1.0	-1.0	-1.0	0.0	marker	peace	Peace	26	0418
-68590.08	-55336.185	-104805.58499999999	-18533.43	0.0	0.0	0.0	0.0	0.0	0.0	0.0	0.0	0.0	0.0	0.0	0.0	0.0	0.0	145.6551724137931	0.0	0.03076164	-0.036926175	1.022153145	2.8230999999999997	0.19838	0.33571999999999996	3294147.0	1776544978.760915	0.0	1.0	-1.0	-1.0	-1.0	-1.0	-1.0	-1.0	-1.0	-1.0	0.0	marker	peace	Peace	26	0418
-68582.06999999999	-55334.475	-104798.51999999999	-18530.01	0.0	0.0	0.0	0.0	0.0	0.0	0.0	0.0	0.0	0.0	0.0	0.0	0.0	0.0	145.6551724137931	0.0	0.03076164	-0.036926175	1.022153145	2.8230999999999997	0.19838	0.33571999999999996	3294148.0	1776544978.760925	0.0	1.0	-1.0	-1.0	-1.0	-1.0	-1.0	-1.0	-1.0	-1.0	0.0	marker	peace	Peace	26	0418
-68584.095	-55319.354999999996	-104798.11499999999	-18537.704999999998	0.0	0.0	0.0	0.0	0.0	0.0	0.0	0.0	0.0	0.0	0.0	0.0	0.0	0.0	145.6551724137931	0.0	0.03076164	-0.036926175	1.022153145	2.8230999999999997	0.19838	0.33571999999999996	3294149.0	1776544978.763697	0.0	1.0	-1.0	-1.0	-1.0	-1.0	-1.0	-1.0	-1.0	-1.0	0.0	marker	peace	Peace	26	0418
-68589.94499999999	-55308.284999999996	-104808.555	-18552.87	0.0	0.0	0.0	0.0	0.0	0.0	0.0	0.0	0.0	0.0	0.0	0.0	0.0	0.0	145.6551724137931	0.0	0.03076164	-0.036926175	1.022153145	2.8230999999999997	0.19838	0.33571999999999996	3294150.0	1776544978.76372	0.0	1.0	-1.0	-1.0	-1.0	-1.0	-1.0	-1.0	-1.0	-1.0	0.0	marker	peace	Peace	26	0418
-68617.845	-55314.854999999996	-104862.95999999999	-18606.69	0.0	0.0	0.0	0.0	0.0	0.0	0.0	0.0	0.0	0.0	0.0	0.0	0.0	0.0	145.6551724137931	0.0	0.03076164	-0.036926175	1.022153145	2.8230999999999997	0.19838	0.33571999999999996	3294151.0	1776544978.768324	0.0	1.0	-1.0	-1.0	-1.0	-1.0	-1.0	-1.0	-1.0	-1.0	0.0	marker	peace	Peace	26	0418
-68590.125	-55324.575	-104832.09	-18572.625	0.0	0.0	0.0	0.0	0.0	0.0	0.0	0.0	0.0	0.0	0.0	0.0	0.0	0.0	145.6551724137931	0.0	0.03076164	-0.036926175	1.022153145	2.8230999999999997	0.19838	0.33571999999999996	3294152.0	1776544978.768349	0.0	1.0	-1.0	-1.0	-1.0	-1.0	-1.0	-1.0	-1.0	-1.0	0.0	marker	peace	Peace	26	0418
-68534.595	-55338.479999999996	-104766.48	-18491.445	0.0	0.0	0.0	0.0	0.0	0.0	0.0	0.0	0.0	0.0	0.0	0.0	0.0	0.0	145.6551724137931	0.0	0.030212325	-0.038635155	1.021298655	2.5942	-0.32045999999999997	-0.5341	3294153.0	1776544978.771688	0.0	1.0	-1.0	-1.0	-1.0	-1.0	-1.0	-1.0	-1.0	-1.0	0.0	marker	peace	Peace	26	0418
-68558.895	-55355.67	-104777.73	-18501.93	0.0	0.0	0.0	0.0	0.0	0.0	0.0	0.0	0.0	0.0	0.0	0.0	0.0	0.0	145.6551724137931	0.0	0.030212325	-0.038635155	1.021298655	2.5942	-0.32045999999999997	-0.5341	3294154.0	1776544978.771716	0.0	1.0	-1.0	-1.0	-1.0	-1.0	-1.0	-1.0	-1.0	-1.0	0.0	marker	peace	Peace	26	0418
-68592.375	-55351.619999999995	-104812.33499999999	-18545.399999999998	0.0	0.0	0.0	0.0	0.0	0.0	0.0	0.0	0.0	0.0	0.0	0.0	0.0	0.0	145.6551724137931	0.0	0.030212325	-0.038635155	1.021298655	2.5942	-0.32045999999999997	-0.5341	3294155.0	1776544978.775568	0.0	1.0	-1.0	-1.0	-1.0	-1.0	-1.0	-1.0	-1.0	-1.0	0.0	marker	peace	Peace	26	0418
-68572.89	-55345.725	-104806.44	-18542.925	0.0	0.0	0.0	0.0	0.0	0.0	0.0	0.0	0.0	0.0	0.0	0.0	0.0	0.0	145.6551724137931	0.0	0.030212325	-0.038635155	1.021298655	2.5942	-0.32045999999999997	-0.5341	3294156.0	1776544978.775579	0.0	1.0	-1.0	-1.0	-1.0	-1.0	-1.0	-1.0	-1.0	-1.0	0.0	marker	peace	Peace	26	0418
-68569.83	-55342.979999999996	-104779.17	-18509.13	0.0	0.0	0.0	0.0	0.0	0.0	0.0	0.0	0.0	0.0	0.0	0.0	0.0	0.0	145.6551724137931	0.0	0.030212325	-0.038635155	1.021298655	2.5942	-0.32045999999999997	-0.5341	3294157.0	1776544978.779739	0.0	1.0	-1.0	-1.0	-1.0	-1.0	-1.0	-1.0	-1.0	-1.0	0.0	marker	peace	Peace	26	0418
-68546.745	-55333.439999999995	-104750.81999999999	-18477.855	0.0	0.0	0.0	0.0	0.0	0.0	0.0	0.0	0.0	0.0	0.0	0.0	0.0	0.0	145.6551724137931	0.0	0.030212325	-0.038635155	1.021298655	2.5942	-0.32045999999999997	-0.5341	3294158.0	1776544978.779776	0.0	1.0	-1.0	-1.0	-1.0	-1.0	-1.0	-1.0	-1.0	-1.0	0.0	marker	peace	Peace	26	0418
-68522.715	-55324.395	-104747.08499999999	-18478.844999999998	0.0	0.0	0.0	0.0	0.0	0.0	0.0	0.0	0.0	0.0	0.0	0.0	0.0	0.0	145.6551724137931	0.0	0.030212325	-0.038635155	1.021298655	2.5942	-0.32045999999999997	-0.5341	3294159.0	1776544978.783783	0.0	1.0	-1.0	-1.0	-1.0	-1.0	-1.0	-1.0	-1.0	-1.0	0.0	marker	peace	Peace	26	0418
-68613.345	-55330.29	-104832.18	-18568.934999999998	0.0	0.0	0.0	0.0	0.0	0.0	0.0	0.0	0.0	0.0	0.0	0.0	0.0	0.0	145.6551724137931	0.0	0.030212325	-0.038635155	1.021298655	2.5942	-0.32045999999999997	-0.5341	3294160.0	1776544978.783812	0.0	1.0	-1.0	-1.0	-1.0	-1.0	-1.0	-1.0	-1.0	-1.0	0.0	marker	peace	Peace	26	0418
-68632.245	-55336.365	-104833.26	-18576.495	0.0	0.0	0.0	0.0	0.0	0.0	0.0	0.0	0.0	0.0	0.0	0.0	0.0	0.0	145.6551724137931	0.0	0.030212325	-0.038635155	1.021298655	2.5942	-0.32045999999999997	-0.5341	3294161.0	1776544978.787768	0.0	1.0	-1.0	-1.0	-1.0	-1.0	-1.0	-1.0	-1.0	-1.0	0.0	marker	peace	Peace	26	0418
-68604.03	-55333.125	-104809.635	-18558.719999999998	0.0	0.0	0.0	0.0	0.0	0.0	0.0	0.0	0.0	0.0	0.0	0.0	0.0	0.0	145.6551724137931	0.0	0.030212325	-0.038635155	1.021298655	2.5942	-0.32045999999999997	-0.5341	3294162.0	1776544978.787792	0.0	1.0	-1.0	-1.0	-1.0	-1.0	-1.0	-1.0	-1.0	-1.0	0.0	marker	peace	Peace	26	0418
-68627.06999999999	-55331.729999999996	-104844.95999999999	-18577.079999999998	0.0	0.0	0.0	0.0	0.0	0.0	0.0	0.0	0.0	0.0	0.0	0.0	0.0	0.0	145.6551724137931	0.0	0.033142005	-0.04089345	1.018368975	3.8760399999999997	0.19838	-0.48832	3294163.0	1776544978.791634	0.0	1.0	-1.0	-1.0	-1.0	-1.0	-1.0	-1.0	-1.0	-1.0	0.0	marker	peace	Peace	26	0418
-68634.54	-55336.365	-104857.83	-18594.27	0.0	0.0	0.0	0.0	0.0	0.0	0.0	0.0	0.0	0.0	0.0	0.0	0.0	0.0	145.6551724137931	0.0	0.033142005	-0.04089345	1.018368975	3.8760399999999997	0.19838	-0.48832	3294164.0	1776544978.791647	0.0	1.0	-1.0	-1.0	-1.0	-1.0	-1.0	-1.0	-1.0	-1.0	0.0	marker	peace	Peace	26	0418
-68599.395	-55338.525	-104826.06	-18567.63	0.0	0.0	0.0	0.0	0.0	0.0	0.0	0.0	0.0	0.0	0.0	0.0	0.0	0.0	145.6551724137931	0.0	0.033142005	-0.04089345	1.018368975	3.8760399999999997	0.19838	-0.48832	3294165.0	1776544978.795905	0.0	1.0	-1.0	-1.0	-1.0	-1.0	-1.0	-1.0	-1.0	-1.0	0.0	marker	peace	Peace	26	0418
-68576.715	-55333.439999999995	-104816.43	-18560.024999999998	0.0	0.0	0.0	0.0	0.0	0.0	0.0	0.0	0.0	0.0	0.0	0.0	0.0	0.0	145.6551724137931	0.0	0.033142005	-0.04089345	1.018368975	3.8760399999999997	0.19838	-0.48832	3294166.0	1776544978.79592	0.0	1.0	-1.0	-1.0	-1.0	-1.0	-1.0	-1.0	-1.0	-1.0	0.0	marker	peace	Peace	26	0418
-68599.395	-55326.329999999994	-104823.54	-18559.26	0.0	0.0	0.0	0.0	0.0	0.0	0.0	0.0	0.0	0.0	0.0	0.0	0.0	0.0	145.6551724137931	0.0	0.033142005	-0.04089345	1.018368975	3.8760399999999997	0.19838	-0.48832	3294167.0	1776544978.802638	0.0	1.0	-1.0	-1.0	-1.0	-1.0	-1.0	-1.0	-1.0	-1.0	0.0	marker	peace	Peace	26	0418
-68595.345	-55329.345	-104811.39	-18533.565	0.0	0.0	0.0	0.0	0.0	0.0	0.0	0.0	0.0	0.0	0.0	0.0	0.0	0.0	145.6551724137931	0.0	0.033142005	-0.04089345	1.018368975	3.8760399999999997	0.19838	-0.48832	3294168.0	1776544978.802653	0.0	1.0	-1.0	-1.0	-1.0	-1.0	-1.0	-1.0	-1.0	-1.0	0.0	marker	peace	Peace	26	0418
-68593.72499999999	-55335.915	-104809.86	-18538.829999999998	0.0	0.0	0.0	0.0	0.0	0.0	0.0	0.0	0.0	0.0	0.0	0.0	0.0	0.0	145.6551724137931	0.0	0.033142005	-0.04089345	1.018368975	3.8760399999999997	0.19838	-0.48832	3294169.0	1776544978.803872	0.0	1.0	-1.0	-1.0	-1.0	-1.0	-1.0	-1.0	-1.0	-1.0	0.0	marker	peace	Peace	26	0418
-68577.255	-55333.71	-104792.22	-18528.84	0.0	0.0	0.0	0.0	0.0	0.0	0.0	0.0	0.0	0.0	0.0	0.0	0.0	0.0	145.6551724137931	0.0	0.033142005	-0.04089345	1.018368975	3.8760399999999997	0.19838	-0.48832	3294170.0	1776544978.803885	0.0	1.0	-1.0	-1.0	-1.0	-1.0	-1.0	-1.0	-1.0	-1.0	0.0	marker	peace	Peace	26	0418
-68573.11499999999	-55331.954999999994	-104791.995	-18532.35	0.0	0.0	0.0	0.0	0.0	0.0	0.0	0.0	0.0	0.0	0.0	0.0	0.0	0.0	145.6551724137931	0.0	0.033142005	-0.04089345	1.018368975	3.8760399999999997	0.19838	-0.48832	3294171.0	1776544978.807935	0.0	1.0	-1.0	-1.0	-1.0	-1.0	-1.0	-1.0	-1.0	-1.0	0.0	marker	peace	Peace	26	0418
-68589.94499999999	-55337.67	-104803.47	-18540.719999999998	0.0	0.0	0.0	0.0	0.0	0.0	0.0	0.0	0.0	0.0	0.0	0.0	0.0	0.0	145.6551724137931	0.0	0.033142005	-0.04089345	1.018368975	3.8760399999999997	0.19838	-0.48832	3294172.0	1776544978.807957	0.0	1.0	-1.0	-1.0	-1.0	-1.0	-1.0	-1.0	-1.0	-1.0	0.0	marker	peace	Peace	26	0418
-68598.855	-55331.28	-104814.045	-18549.855	0.0	0.0	0.0	0.0	0.0	0.0	0.0	0.0	0.0	0.0	0.0	0.0	0.0	0.0	145.6551724137931	0.0	0.034484775	-0.042175185000000004	1.013242035	4.13546	0.51884	-0.30519999999999997	3294173.0	1776544978.812021	0.0	1.0	-1.0	-1.0	-1.0	-1.0	-1.0	-1.0	-1.0	-1.0	0.0	marker	peace	Peace	26	0418
-68593.005	-55325.07	-104821.83	-18554.625	0.0	0.0	0.0	0.0	0.0	0.0	0.0	0.0	0.0	0.0	0.0	0.0	0.0	0.0	145.6551724137931	0.0	0.034484775	-0.042175185000000004	1.013242035	4.13546	0.51884	-0.30519999999999997	3294174.0	1776544978.812036	0.0	1.0	-1.0	-1.0	-1.0	-1.0	-1.0	-1.0	-1.0	-1.0	0.0	marker	peace	Peace	26	0418
-68596.29	-55316.655	-104830.83	-18567.54	0.0	0.0	0.0	0.0	0.0	0.0	0.0	0.0	0.0	0.0	0.0	0.0	0.0	0.0	145.6551724137931	0.0	0.034484775	-0.042175185000000004	1.013242035	4.13546	0.51884	-0.30519999999999997	3294175.0	1776544978.816072	0.0	1.0	-1.0	-1.0	-1.0	-1.0	-1.0	-1.0	-1.0	-1.0	0.0	marker	peace	Peace	26	0418
-68560.425	-55283.4	-104793.20999999999	-18537.614999999998	0.0	0.0	0.0	0.0	0.0	0.0	0.0	0.0	0.0	0.0	0.0	0.0	0.0	0.0	145.6551724137931	0.0	0.034484775	-0.042175185000000004	1.013242035	4.13546	0.51884	-0.30519999999999997	3294176.0	1776544978.816108	0.0	1.0	-1.0	-1.0	-1.0	-1.0	-1.0	-1.0	-1.0	-1.0	0.0	marker	peace	Peace	26	0418
-68566.68	-55181.7	-104792.985	-18532.215	0.0	0.0	0.0	0.0	0.0	0.0	0.0	0.0	0.0	0.0	0.0	0.0	0.0	0.0	145.6551724137931	0.0	0.034484775	-0.042175185000000004	1.013242035	4.13546	0.51884	-0.30519999999999997	3294177.0	1776544978.819998	0.0	1.0	-1.0	-1.0	-1.0	-1.0	-1.0	-1.0	-1.0	-1.0	0.0	marker	peace	Peace	26	0418
-68633.595	-55161.765	-104850.405	-18576.135	0.0	0.0	0.0	0.0	0.0	0.0	0.0	0.0	0.0	0.0	0.0	0.0	0.0	0.0	145.6551724137931	0.0	0.034484775	-0.042175185000000004	1.013242035	4.13546	0.51884	-0.30519999999999997	3294178.0	1776544978.820008	0.0	1.0	-1.0	-1.0	-1.0	-1.0	-1.0	-1.0	-1.0	-1.0	0.0	marker	peace	Peace	26	0418
-68589.495	-55167.615	-104811.56999999999	-18543.645	0.0	0.0	0.0	0.0	0.0	0.0	0.0	0.0	0.0	0.0	0.0	0.0	0.0	0.0	145.6551724137931	0.0	0.034484775	-0.042175185000000004	1.013242035	4.13546	0.51884	-0.30519999999999997	3294179.0	1776544978.82386	0.0	1.0	-1.0	-1.0	-1.0	-1.0	-1.0	-1.0	-1.0	-1.0	0.0	marker	peace	Peace	26	0418
-68610.825	-55176.39	-104812.01999999999	-18548.73	0.0	0.0	0.0	0.0	0.0	0.0	0.0	0.0	0.0	0.0	0.0	0.0	0.0	0.0	145.6551724137931	0.0	0.034484775	-0.042175185000000004	1.013242035	4.13546	0.51884	-0.30519999999999997	3294180.0	1776544978.823872	0.0	1.0	-1.0	-1.0	-1.0	-1.0	-1.0	-1.0	-1.0	-1.0	0.0	marker	peace	Peace	26	0418
-68606.73	-55182.689999999995	-104798.87999999999	-18528.84	0.0	0.0	0.0	0.0	0.0	0.0	0.0	0.0	0.0	0.0	0.0	0.0	0.0	0.0	145.6551724137931	0.0	0.034484775	-0.042175185000000004	1.013242035	4.13546	0.51884	-0.30519999999999997	3294181.0	1776544978.828165	0.0	1.0	-1.0	-1.0	-1.0	-1.0	-1.0	-1.0	-1.0	-1.0	0.0	marker	peace	Peace	26	0418
-68580.495	-55178.595	-104766.56999999999	-18522.63	0.0	0.0	0.0	0.0	0.0	0.0	0.0	0.0	0.0	0.0	0.0	0.0	0.0	0.0	145.6551724137931	0.0	0.034484775	-0.042175185000000004	1.013242035	4.13546	0.51884	-0.30519999999999997	3294182.0	1776544978.828206	0.0	1.0	-1.0	-1.0	-1.0	-1.0	-1.0	-1.0	-1.0	-1.0	0.0	marker	peace	Peace	26	0418
-68601.87	-55172.835	-104766.20999999999	-18553.05	0.0	0.0	0.0	0.0	0.0	0.0	0.0	0.0	0.0	0.0	0.0	0.0	0.0	0.0	145.6551724137931	0.0	0.033386145	-0.04077138	1.015073085	0.01526	0.6714399999999999	-1.2055399999999998	3294183.0	1776544978.833298	0.0	1.0	-1.0	-1.0	-1.0	-1.0	-1.0	-1.0	-1.0	-1.0	0.0	marker	peace	Peace	26	0418
-68602.05	-55165.725	-104788.17	-18558.765	0.0	0.0	0.0	0.0	0.0	0.0	0.0	0.0	0.0	0.0	0.0	0.0	0.0	0.0	145.6551724137931	0.0	0.033386145	-0.04077138	1.015073085	0.01526	0.6714399999999999	-1.2055399999999998	3294184.0	1776544978.83332	0.0	1.0	-1.0	-1.0	-1.0	-1.0	-1.0	-1.0	-1.0	-1.0	0.0	marker	peace	Peace	26	0418
-68602.455	-55162.89	-104831.86499999999	-18556.02	0.0	0.0	0.0	0.0	0.0	0.0	0.0	0.0	0.0	0.0	0.0	0.0	0.0	0.0	145.6551724137931	0.0	0.033386145	-0.04077138	1.015073085	0.01526	0.6714399999999999	-1.2055399999999998	3294185.0	1776544978.836029	0.0	1.0	-1.0	-1.0	-1.0	-1.0	-1.0	-1.0	-1.0	-1.0	0.0	marker	peace	Peace	26	0418
-68595.255	-55156.275	-104831.19	-18537.614999999998	0.0	0.0	0.0	0.0	0.0	0.0	0.0	0.0	0.0	0.0	0.0	0.0	0.0	0.0	145.6551724137931	0.0	0.033386145	-0.04077138	1.015073085	0.01526	0.6714399999999999	-1.2055399999999998	3294186.0	1776544978.836045	0.0	1.0	-1.0	-1.0	-1.0	-1.0	-1.0	-1.0	-1.0	-1.0	0.0	marker	peace	Peace	26	0418
-68601.735	-55155.78	-104839.155	-18535.23	0.0	0.0	0.0	0.0	0.0	0.0	0.0	0.0	0.0	0.0	0.0	0.0	0.0	0.0	145.6551724137931	0.0	0.033386145	-0.04077138	1.015073085	0.01526	0.6714399999999999	-1.2055399999999998	3294187.0	1776544978.839926	0.0	1.0	-1.0	-1.0	-1.0	-1.0	-1.0	-1.0	-1.0	-1.0	0.0	marker	peace	Peace	26	0418
-68604.56999999999	-55150.784999999996	-104840.64	-18559.62	0.0	0.0	0.0	0.0	0.0	0.0	0.0	0.0	0.0	0.0	0.0	0.0	0.0	0.0	145.6551724137931	0.0	0.033386145	-0.04077138	1.015073085	0.01526	0.6714399999999999	-1.2055399999999998	3294188.0	1776544978.839934	0.0	1.0	-1.0	-1.0	-1.0	-1.0	-1.0	-1.0	-1.0	-1.0	0.0	marker	peace	Peace	26	0418
-68579.64	-55133.46	-104783.265	-18539.82	0.0	0.0	0.0	0.0	0.0	0.0	0.0	0.0	0.0	0.0	0.0	0.0	0.0	0.0	145.6551724137931	0.0	0.033386145	-0.04077138	1.015073085	0.01526	0.6714399999999999	-1.2055399999999998	3294189.0	1776544978.84407	0.0	1.0	-1.0	-1.0	-1.0	-1.0	-1.0	-1.0	-1.0	-1.0	0.0	marker	peace	Peace	26	0418
-68562.315	-55116.36	-104776.425	-18513.18	0.0	0.0	0.0	0.0	0.0	0.0	0.0	0.0	0.0	0.0	0.0	0.0	0.0	0.0	145.6551724137931	0.0	0.033386145	-0.04077138	1.015073085	0.01526	0.6714399999999999	-1.2055399999999998	3294190.0	1776544978.844077	0.0	1.0	-1.0	-1.0	-1.0	-1.0	-1.0	-1.0	-1.0	-1.0	0.0	marker	peace	Peace	26	0418
-68624.01	-55110.24	-104850.315	-18579.555	0.0	0.0	0.0	0.0	0.0	0.0	0.0	0.0	0.0	0.0	0.0	0.0	0.0	0.0	145.6551724137931	0.0	0.033386145	-0.04077138	1.015073085	0.01526	0.6714399999999999	-1.2055399999999998	3294191.0	1776544978.848005	0.0	1.0	-1.0	-1.0	-1.0	-1.0	-1.0	-1.0	-1.0	-1.0	0.0	marker	peace	Peace	26	0418
-68603.08499999999	-55104.119999999995	-104823.26999999999	-18565.11	0.0	0.0	0.0	0.0	0.0	0.0	0.0	0.0	0.0	0.0	0.0	0.0	0.0	0.0	145.6551724137931	0.0	0.033386145	-0.04077138	1.015073085	0.01526	0.6714399999999999	-1.2055399999999998	3294192.0	1776544978.848013	0.0	1.0	-1.0	-1.0	-1.0	-1.0	-1.0	-1.0	-1.0	-1.0	0.0	marker	peace	Peace	26	0418
-68566.86	-55097.235	-104793.93	-18539.684999999998	0.0	0.0	0.0	0.0	0.0	0.0	0.0	0.0	0.0	0.0	0.0	0.0	0.0	0.0	145.6551724137931	0.0	0.03210441	-0.036437895	1.017026205	3.26564	0.47306	-0.56462	3294193.0	1776544978.852363	0.0	1.0	-1.0	-1.0	-1.0	-1.0	-1.0	-1.0	-1.0	-1.0	0.0	marker	peace	Peace	26	0418
-68598.09	-55109.475	-104828.53499999999	-18564.524999999998	0.0	0.0	0.0	0.0	0.0	0.0	0.0	0.0	0.0	0.0	0.0	0.0	0.0	0.0	145.6551724137931	0.0	0.03210441	-0.036437895	1.017026205	3.26564	0.47306	-0.56462	3294194.0	1776544978.852369	0.0	1.0	-1.0	-1.0	-1.0	-1.0	-1.0	-1.0	-1.0	-1.0	0.0	marker	peace	Peace	26	0418
-68620.14	-55128.78	-104835.375	-18571.545	0.0	0.0	0.0	0.0	0.0	0.0	0.0	0.0	0.0	0.0	0.0	0.0	0.0	0.0	145.6551724137931	0.0	0.03210441	-0.036437895	1.017026205	3.26564	0.47306	-0.56462	3294195.0	1776544978.857507	0.0	1.0	-1.0	-1.0	-1.0	-1.0	-1.0	-1.0	-1.0	-1.0	0.0	marker	peace	Peace	26	0418
-68605.47	-55141.47	-104830.92	-18563.219999999998	0.0	0.0	0.0	0.0	0.0	0.0	0.0	0.0	0.0	0.0	0.0	0.0	0.0	0.0	145.6551724137931	0.0	0.03210441	-0.036437895	1.017026205	3.26564	0.47306	-0.56462	3294196.0	1776544978.857512	0.0	1.0	-1.0	-1.0	-1.0	-1.0	-1.0	-1.0	-1.0	-1.0	0.0	marker	peace	Peace	26	0418
-68599.8	-55150.92	-104819.44499999999	-18553.005	0.0	0.0	0.0	0.0	0.0	0.0	0.0	0.0	0.0	0.0	0.0	0.0	0.0	0.0	145.6551724137931	0.0	0.03210441	-0.036437895	1.017026205	3.26564	0.47306	-0.56462	3294197.0	1776544978.86261	0.0	1.0	-1.0	-1.0	-1.0	-1.0	-1.0	-1.0	-1.0	-1.0	0.0	marker	peace	Peace	26	0418
-68583.59999999999	-55145.295	-104803.69499999999	-18527.445	0.0	0.0	0.0	0.0	0.0	0.0	0.0	0.0	0.0	0.0	0.0	0.0	0.0	0.0	145.6551724137931	0.0	0.03210441	-0.036437895	1.017026205	3.26564	0.47306	-0.56462	3294198.0	1776544978.862616	0.0	1.0	-1.0	-1.0	-1.0	-1.0	-1.0	-1.0	-1.0	-1.0	0.0	marker	peace	Peace	26	0418
-68538.105	-55133.235	-104769.495	-18504.675	0.0	0.0	0.0	0.0	0.0	0.0	0.0	0.0	0.0	0.0	0.0	0.0	0.0	0.0	145.6551724137931	0.0	0.03210441	-0.036437895	1.017026205	3.26564	0.47306	-0.56462	3294199.0	1776544978.863911	0.0	1.0	-1.0	-1.0	-1.0	-1.0	-1.0	-1.0	-1.0	-1.0	0.0	marker	peace	Peace	26	0418
-68589.63	-55125.854999999996	-104821.92	-18561.015	0.0	0.0	0.0	0.0	0.0	0.0	0.0	0.0	0.0	0.0	0.0	0.0	0.0	0.0	145.6551724137931	0.0	0.03210441	-0.036437895	1.017026205	3.26564	0.47306	-0.56462	3294200.0	1776544978.863917	0.0	1.0	-1.0	-1.0	-1.0	-1.0	-1.0	-1.0	-1.0	-1.0	0.0	marker	peace	Peace	26	0418
-68640.20999999999	-55127.79	-104847.345	-18573.614999999998	0.0	0.0	0.0	0.0	0.0	0.0	0.0	0.0	0.0	0.0	0.0	0.0	0.0	0.0	145.6551724137931	0.0	0.03210441	-0.036437895	1.017026205	3.26564	0.47306	-0.56462	3294201.0	1776544978.868152	0.0	1.0	-1.0	-1.0	-1.0	-1.0	-1.0	-1.0	-1.0	-1.0	0.0	marker	peace	Peace	26	0418
-68603.94	-55121.805	-104822.685	-18555.614999999998	0.0	0.0	0.0	0.0	0.0	0.0	0.0	0.0	0.0	0.0	0.0	0.0	0.0	0.0	145.6551724137931	0.0	0.03210441	-0.036437895	1.017026205	3.26564	0.47306	-0.56462	3294202.0	1776544978.868158	0.0	1.0	-1.0	-1.0	-1.0	-1.0	-1.0	-1.0	-1.0	-1.0	0.0	marker	peace	Peace	26	0418
-68603.4	-55124.145	-104818.59	-18555.165	0.0	0.0	0.0	0.0	0.0	0.0	0.0	0.0	0.0	0.0	0.0	0.0	0.0	0.0	145.6551724137931	0.0	0.0317382	-0.035217195	1.02148176	3.4640199999999997	0.12208	-0.09156	3294203.0	1776544978.872062	0.0	1.0	-1.0	-1.0	-1.0	-1.0	-1.0	-1.0	-1.0	-1.0	0.0	marker	peace	Peace	26	0418
-68599.755	-55127.295	-104799.555	-18537.93	0.0	0.0	0.0	0.0	0.0	0.0	0.0	0.0	0.0	0.0	0.0	0.0	0.0	0.0	145.6551724137931	0.0	0.0317382	-0.035217195	1.02148176	3.4640199999999997	0.12208	-0.09156	3294204.0	1776544978.872067	0.0	1.0	-1.0	-1.0	-1.0	-1.0	-1.0	-1.0	-1.0	-1.0	0.0	marker	peace	Peace	26	0418
-68585.895	-55127.204999999994	-104783.12999999999	-18526.995	0.0	0.0	0.0	0.0	0.0	0.0	0.0	0.0	0.0	0.0	0.0	0.0	0.0	0.0	145.6551724137931	0.0	0.0317382	-0.035217195	1.02148176	3.4640199999999997	0.12208	-0.09156	3294205.0	1776544978.876096	0.0	1.0	-1.0	-1.0	-1.0	-1.0	-1.0	-1.0	-1.0	-1.0	0.0	marker	peace	Peace	26	0418
-68589.0	-55131.57	-104798.83499999999	-18530.1	0.0	0.0	0.0	0.0	0.0	0.0	0.0	0.0	0.0	0.0	0.0	0.0	0.0	0.0	145.6551724137931	0.0	0.0317382	-0.035217195	1.02148176	3.4640199999999997	0.12208	-0.09156	3294206.0	1776544978.8761	0.0	1.0	-1.0	-1.0	-1.0	-1.0	-1.0	-1.0	-1.0	-1.0	0.0	marker	peace	Peace	26	0418
-68582.83499999999	-55136.88	-104801.67	-18522.945	0.0	0.0	0.0	0.0	0.0	0.0	0.0	0.0	0.0	0.0	0.0	0.0	0.0	0.0	145.6551724137931	0.0	0.0317382	-0.035217195	1.02148176	3.4640199999999997	0.12208	-0.09156	3294207.0	1776544978.880164	0.0	1.0	-1.0	-1.0	-1.0	-1.0	-1.0	-1.0	-1.0	-1.0	0.0	marker	peace	Peace	26	0418
-68527.935	-55138.275	-104756.58	-18487.079999999998	0.0	0.0	0.0	0.0	0.0	0.0	0.0	0.0	0.0	0.0	0.0	0.0	0.0	0.0	145.6551724137931	0.0	0.0317382	-0.035217195	1.02148176	3.4640199999999997	0.12208	-0.09156	3294208.0	1776544978.880169	0.0	1.0	-1.0	-1.0	-1.0	-1.0	-1.0	-1.0	-1.0	-1.0	0.0	marker	peace	Peace	26	0418
-68603.805	-55148.265	-104827.455	-18557.37	0.0	0.0	0.0	0.0	0.0	0.0	0.0	0.0	0.0	0.0	0.0	0.0	0.0	0.0	145.6551724137931	0.0	0.0317382	-0.035217195	1.02148176	3.4640199999999997	0.12208	-0.09156	3294209.0	1776544978.884126	0.0	1.0	-1.0	-1.0	-1.0	-1.0	-1.0	-1.0	-1.0	-1.0	0.0	marker	peace	Peace	26	0418
-68641.515	-55156.68	-104855.715	-18588.195	0.0	0.0	0.0	0.0	0.0	0.0	0.0	0.0	0.0	0.0	0.0	0.0	0.0	0.0	145.6551724137931	0.0	0.0317382	-0.035217195	1.02148176	3.4640199999999997	0.12208	-0.09156	3294210.0	1776544978.88413	0.0	1.0	-1.0	-1.0	-1.0	-1.0	-1.0	-1.0	-1.0	-1.0	0.0	marker	peace	Peace	26	0418
-68603.08499999999	-55161.494999999995	-104823.26999999999	-18566.19	0.0	0.0	0.0	0.0	0.0	0.0	0.0	0.0	0.0	0.0	0.0	0.0	0.0	0.0	145.6551724137931	0.0	0.0317382	-0.035217195	1.02148176	3.4640199999999997	0.12208	-0.09156	3294211.0	1776544978.888393	0.0	1.0	-1.0	-1.0	-1.0	-1.0	-1.0	-1.0	-1.0	-1.0	0.0	marker	peace	Peace	26	0418
-68591.565	-55161.9	-104801.31	-18540.09	0.0	0.0	0.0	0.0	0.0	0.0	0.0	0.0	0.0	0.0	0.0	0.0	0.0	0.0	145.6551724137931	0.0	0.0317382	-0.035217195	1.02148176	3.4640199999999997	0.12208	-0.09156	3294212.0	1776544978.888398	0.0	1.0	-1.0	-1.0	-1.0	-1.0	-1.0	-1.0	-1.0	-1.0	0.0	marker	peace	Peace	26	0418
-68586.03	-55167.479999999996	-104804.415	-18542.88	0.0	0.0	0.0	0.0	0.0	0.0	0.0	0.0	0.0	0.0	0.0	0.0	0.0	0.0	145.6551724137931	0.0	0.032287515	-0.036804105000000004	1.02184797	3.26564	-0.28994	-0.44254	3294213.0	1776544978.892209	0.0	1.0	-1.0	-1.0	-1.0	-1.0	-1.0	-1.0	-1.0	-1.0	0.0	marker	peace	Peace	26	0418
-68587.245	-55159.38	-104813.37	-18558.315	0.0	0.0	0.0	0.0	0.0	0.0	0.0	0.0	0.0	0.0	0.0	0.0	0.0	0.0	145.6551724137931	0.0	0.032287515	-0.036804105000000004	1.02184797	3.26564	-0.28994	-0.44254	3294214.0	1776544978.892217	0.0	1.0	-1.0	-1.0	-1.0	-1.0	-1.0	-1.0	-1.0	-1.0	0.0	marker	peace	Peace	26	0418
-68583.15	-55153.979999999996	-104810.12999999999	-18553.14	0.0	0.0	0.0	0.0	0.0	0.0	0.0	0.0	0.0	0.0	0.0	0.0	0.0	0.0	145.6551724137931	0.0	0.032287515	-0.036804105000000004	1.02184797	3.26564	-0.28994	-0.44254	3294215.0	1776544978.898164	0.0	1.0	-1.0	-1.0	-1.0	-1.0	-1.0	-1.0	-1.0	-1.0	0.0	marker	peace	Peace	26	0418
-68592.735	-55156.77	-104803.605	-18533.385	0.0	0.0	0.0	0.0	0.0	0.0	0.0	0.0	0.0	0.0	0.0	0.0	0.0	0.0	145.6551724137931	0.0	0.032287515	-0.036804105000000004	1.02184797	3.26564	-0.28994	-0.44254	3294216.0	1776544978.898169	0.0	1.0	-1.0	-1.0	-1.0	-1.0	-1.0	-1.0	-1.0	-1.0	0.0	marker	peace	Peace	26	0418
-68558.175	-55147.454999999994	-104780.295	-18511.469999999998	0.0	0.0	0.0	0.0	0.0	0.0	0.0	0.0	0.0	0.0	0.0	0.0	0.0	0.0	145.6551724137931	0.0	0.032287515	-0.036804105000000004	1.02184797	3.26564	-0.28994	-0.44254	3294217.0	1776544978.900128	0.0	1.0	-1.0	-1.0	-1.0	-1.0	-1.0	-1.0	-1.0	-1.0	0.0	marker	peace	Peace	26	0418
-68617.53	-55146.645	-104834.565	-18569.925	0.0	0.0	0.0	0.0	0.0	0.0	0.0	0.0	0.0	0.0	0.0	0.0	0.0	0.0	145.6551724137931	0.0	0.032287515	-0.036804105000000004	1.02184797	3.26564	-0.28994	-0.44254	3294218.0	1776544978.900133	0.0	1.0	-1.0	-1.0	-1.0	-1.0	-1.0	-1.0	-1.0	-1.0	0.0	marker	peace	Peace	26	0418
-68580.18	-55150.695	-104794.37999999999	-18530.73	0.0	0.0	0.0	0.0	0.0	0.0	0.0	0.0	0.0	0.0	0.0	0.0	0.0	0.0	145.6551724137931	0.0	0.032287515	-0.036804105000000004	1.02184797	3.26564	-0.28994	-0.44254	3294219.0	1776544978.90418	0.0	1.0	-1.0	-1.0	-1.0	-1.0	-1.0	-1.0	-1.0	-1.0	0.0	marker	peace	Peace	26	0418
-68554.89	-55163.295	-104764.815	-18501.885	0.0	0.0	0.0	0.0	0.0	0.0	0.0	0.0	0.0	0.0	0.0	0.0	0.0	0.0	145.6551724137931	0.0	0.032287515	-0.036804105000000004	1.02184797	3.26564	-0.28994	-0.44254	3294220.0	1776544978.904184	0.0	1.0	-1.0	-1.0	-1.0	-1.0	-1.0	-1.0	-1.0	-1.0	0.0	marker	peace	Peace	26	0418
-68563.53	-55192.095	-104755.815	-18509.85	0.0	0.0	0.0	0.0	0.0	0.0	0.0	0.0	0.0	0.0	0.0	0.0	0.0	0.0	145.6551724137931	0.0	0.032287515	-0.036804105000000004	1.02184797	3.26564	-0.28994	-0.44254	3294221.0	1776544978.908138	0.0	1.0	-1.0	-1.0	-1.0	-1.0	-1.0	-1.0	-1.0	-1.0	0.0	marker	peace	Peace	26	0418
-68555.61	-55244.7	-104746.05	-18507.69	0.0	0.0	0.0	0.0	0.0	0.0	0.0	0.0	0.0	0.0	0.0	0.0	0.0	0.0	145.6551724137931	0.0	0.032287515	-0.036804105000000004	1.02184797	3.26564	-0.28994	-0.44254	3294222.0	1776544978.908151	0.0	1.0	-1.0	-1.0	-1.0	-1.0	-1.0	-1.0	-1.0	-1.0	0.0	marker	peace	Peace	26	0418
-68595.345	-55272.869999999995	-104780.745	-18530.145	0.0	0.0	0.0	0.0	0.0	0.0	0.0	0.0	0.0	0.0	0.0	0.0	0.0	0.0	145.86206896551727	0.0	0.033386145	-0.03955068	1.0180638	4.53222	0.25942	-0.6714399999999999	3294223.0	1776544978.912112	0.0	1.0	-1.0	-1.0	-1.0	-1.0	-1.0	-1.0	-1.0	-1.0	0.0	marker	peace	Peace	26	0418
-68614.245	-55272.96	-104821.47	-18557.73	0.0	0.0	0.0	0.0	0.0	0.0	0.0	0.0	0.0	0.0	0.0	0.0	0.0	0.0	145.86206896551727	0.0	0.033386145	-0.03955068	1.0180638	4.53222	0.25942	-0.6714399999999999	3294224.0	1776544978.912116	0.0	1.0	-1.0	-1.0	-1.0	-1.0	-1.0	-1.0	-1.0	-1.0	0.0	marker	peace	Peace	26	0418
-68589.54	-55263.284999999996	-104815.305	-18556.29	0.0	0.0	0.0	0.0	0.0	0.0	0.0	0.0	0.0	0.0	0.0	0.0	0.0	0.0	145.86206896551727	0.0	0.033386145	-0.03955068	1.0180638	4.53222	0.25942	-0.6714399999999999	3294225.0	1776544978.916158	0.0	1.0	-1.0	-1.0	-1.0	-1.0	-1.0	-1.0	-1.0	-1.0	0.0	marker	peace	Peace	26	0418
