ch_0	ch_1	ch_2	ch_3	ch_4	ch_5	ch_6	ch_7	ch_8	ch_9	ch_10	ch_11	ch_12	ch_13	ch_14	ch_15	ch_16	ch_17	ch_18	ch_19	ch_20	ch_21	ch_22	ch_23	ch_24	ch_25	ch_26	timestamp	marker	ch_29	ch_30	ch_31	ch_32	ch_33	ch_34	ch_35	ch_36	ch_37	ch_38	MarkerColumn	GestureLabel	CueLabel	SampleNumber	CollectionDate
-67896.405	-54709.515	-104075.19	-18247.454999999998	0.0	0.0	0.0	0.0	0.0	0.0	0.0	0.0	0.0	0.0	0.0	0.0	0.0	0.0	146.13793103448276	0.0	0.068786445	-0.10925265	1.003842645	2.63998	0.6103999999999999	-0.9308599999999999	3267962.0	1776544926.211788	5.0	1.0	-1.0	-1.0	-1.0	-1.0	-1.0	-1.0	-1.0	-1.0	0.0	marker	peace	Peace	21	0418
-67913.415	-54727.92	-104182.965	-18267.12	0.0	0.0	0.0	0.0	0.0	0.0	0.0	0.0	0.0	0.0	0.0	0.0	0.0	0.0	146.13793103448276	0.0	0.068786445	-0.10925265	1.003842645	2.63998	0.6103999999999999	-0.9308599999999999	3267963.0	1776544926.211793	0.0	1.0	-1.0	-1.0	-1.0	-1.0	-1.0	-1.0	-1.0	-1.0	0.0	marker	peace	Peace	21	0418
-67869.72	-54739.979999999996	-104144.67	-18214.2	0.0	0.0	0.0	0.0	0.0	0.0	0.0	0.0	0.0	0.0	0.0	0.0	0.0	0.0	146.13793103448276	0.0	0.068786445	-0.10925265	1.003842645	2.63998	0.6103999999999999	-0.9308599999999999	3267964.0	1776544926.21447	0.0	1.0	-1.0	-1.0	-1.0	-1.0	-1.0	-1.0	-1.0	-1.0	0.0	marker	peace	Peace	21	0418
-67862.385	-54743.354999999996	-104122.89	-18226.17	0.0	0.0	0.0	0.0	0.0	0.0	0.0	0.0	0.0	0.0	0.0	0.0	0.0	0.0	146.13793103448276	0.0	0.068786445	-0.10925265	1.003842645	2.63998	0.6103999999999999	-0.9308599999999999	3267965.0	1776544926.214475	0.0	1.0	-1.0	-1.0	-1.0	-1.0	-1.0	-1.0	-1.0	-1.0	0.0	marker	peace	Peace	21	0418
-68008.68	-54746.145	-104238.22499999999	-18342.765	0.0	0.0	0.0	0.0	0.0	0.0	0.0	0.0	0.0	0.0	0.0	0.0	0.0	0.0	146.13793103448276	0.0	0.068786445	-0.10925265	1.003842645	2.63998	0.6103999999999999	-0.9308599999999999	3267966.0	1776544926.218584	0.0	1.0	-1.0	-1.0	-1.0	-1.0	-1.0	-1.0	-1.0	-1.0	0.0	marker	peace	Peace	21	0418
-67814.28	-54721.89	-104049.72	-18180.315	0.0	0.0	0.0	0.0	0.0	0.0	0.0	0.0	0.0	0.0	0.0	0.0	0.0	0.0	146.13793103448276	0.0	0.068786445	-0.10925265	1.003842645	2.63998	0.6103999999999999	-0.9308599999999999	3267967.0	1776544926.218588	0.0	1.0	-1.0	-1.0	-1.0	-1.0	-1.0	-1.0	-1.0	-1.0	0.0	marker	peace	Peace	21	0418
-67837.36499999999	-54709.65	-104074.965	-18201.69	0.0	0.0	0.0	0.0	0.0	0.0	0.0	0.0	0.0	0.0	0.0	0.0	0.0	0.0	146.13793103448276	0.0	0.068786445	-0.10925265	1.003842645	2.63998	0.6103999999999999	-0.9308599999999999	3267968.0	1776544926.222459	0.0	1.0	-1.0	-1.0	-1.0	-1.0	-1.0	-1.0	-1.0	-1.0	0.0	marker	peace	Peace	21	0418
-67922.28	-54710.055	-104150.295	-18278.28	0.0	0.0	0.0	0.0	0.0	0.0	0.0	0.0	0.0	0.0	0.0	0.0	0.0	0.0	146.13793103448276	0.0	0.068786445	-0.10925265	1.003842645	2.63998	0.6103999999999999	-0.9308599999999999	3267969.0	1776544926.222463	0.0	1.0	-1.0	-1.0	-1.0	-1.0	-1.0	-1.0	-1.0	-1.0	0.0	marker	peace	Peace	21	0418
-67912.515	-54711.134999999995	-104146.155	-18259.335	0.0	0.0	0.0	0.0	0.0	0.0	0.0	0.0	0.0	0.0	0.0	0.0	0.0	0.0	146.13793103448276	0.0	0.066345045	-0.11657685	1.004086785	1.4039199999999998	1.49548	-0.94612	3267970.0	1776544926.226652	0.0	1.0	-1.0	-1.0	-1.0	-1.0	-1.0	-1.0	-1.0	-1.0	0.0	marker	peace	Peace	21	0418
-67943.43	-54724.095	-104103.26999999999	-18206.82	0.0	0.0	0.0	0.0	0.0	0.0	0.0	0.0	0.0	0.0	0.0	0.0	0.0	0.0	146.13793103448276	0.0	0.066345045	-0.11657685	1.004086785	1.4039199999999998	1.49548	-0.94612	3267971.0	1776544926.226657	0.0	1.0	-1.0	-1.0	-1.0	-1.0	-1.0	-1.0	-1.0	-1.0	0.0	marker	peace	Peace	21	0418
-67984.69499999999	-54743.49	-104126.48999999999	-18224.1	0.0	0.0	0.0	0.0	0.0	0.0	0.0	0.0	0.0	0.0	0.0	0.0	0.0	0.0	146.13793103448276	0.0	0.066345045	-0.11657685	1.004086785	1.4039199999999998	1.49548	-0.94612	3267972.0	1776544926.230502	0.0	1.0	-1.0	-1.0	-1.0	-1.0	-1.0	-1.0	-1.0	-1.0	0.0	marker	peace	Peace	21	0418
-67937.4	-54763.02	-104188.14	-18354.87	0.0	0.0	0.0	0.0	0.0	0.0	0.0	0.0	0.0	0.0	0.0	0.0	0.0	0.0	146.13793103448276	0.0	0.066345045	-0.11657685	1.004086785	1.4039199999999998	1.49548	-0.94612	3267973.0	1776544926.230506	0.0	1.0	-1.0	-1.0	-1.0	-1.0	-1.0	-1.0	-1.0	-1.0	0.0	marker	peace	Peace	21	0418
-67832.64	-54758.115	-104117.04	-18292.545	0.0	0.0	0.0	0.0	0.0	0.0	0.0	0.0	0.0	0.0	0.0	0.0	0.0	0.0	146.13793103448276	0.0	0.066345045	-0.11657685	1.004086785	1.4039199999999998	1.49548	-0.94612	3267974.0	1776544926.235525	0.0	1.0	-1.0	-1.0	-1.0	-1.0	-1.0	-1.0	-1.0	-1.0	0.0	marker	peace	Peace	21	0418
-67695.165	-54745.38	-103967.595	-18127.395	0.0	0.0	0.0	0.0	0.0	0.0	0.0	0.0	0.0	0.0	0.0	0.0	0.0	0.0	146.13793103448276	0.0	0.066345045	-0.11657685	1.004086785	1.4039199999999998	1.49548	-0.94612	3267975.0	1776544926.235529	0.0	1.0	-1.0	-1.0	-1.0	-1.0	-1.0	-1.0	-1.0	-1.0	0.0	marker	peace	Peace	21	0418
-67683.645	-54736.2	-103951.98	-18092.25	0.0	0.0	0.0	0.0	0.0	0.0	0.0	0.0	0.0	0.0	0.0	0.0	0.0	0.0	146.13793103448276	0.0	0.066345045	-0.11657685	1.004086785	1.4039199999999998	1.49548	-0.94612	3267976.0	1776544926.238516	0.0	1.0	-1.0	-1.0	-1.0	-1.0	-1.0	-1.0	-1.0	-1.0	0.0	marker	peace	Peace	21	0418
-67958.595	-54741.645	-104176.26	-18280.665	0.0	0.0	0.0	0.0	0.0	0.0	0.0	0.0	0.0	0.0	0.0	0.0	0.0	0.0	146.13793103448276	0.0	0.066345045	-0.11657685	1.004086785	1.4039199999999998	1.49548	-0.94612	3267977.0	1776544926.23852	0.0	1.0	-1.0	-1.0	-1.0	-1.0	-1.0	-1.0	-1.0	-1.0	0.0	marker	peace	Peace	21	0418
-68068.395	-54744.615	-104205.465	-18354.645	0.0	0.0	0.0	0.0	0.0	0.0	0.0	0.0	0.0	0.0	0.0	0.0	0.0	0.0	146.13793103448276	0.0	0.066345045	-0.11657685	1.004086785	1.4039199999999998	1.49548	-0.94612	3267978.0	1776544926.244582	0.0	1.0	-1.0	-1.0	-1.0	-1.0	-1.0	-1.0	-1.0	-1.0	0.0	marker	peace	Peace	21	0418
-68004.315	-54741.915	-104106.465	-18319.635	0.0	0.0	0.0	0.0	0.0	0.0	0.0	0.0	0.0	0.0	0.0	0.0	0.0	0.0	146.13793103448276	0.0	0.066345045	-0.11657685	1.004086785	1.4039199999999998	1.49548	-0.94612	3267979.0	1776544926.244586	0.0	1.0	-1.0	-1.0	-1.0	-1.0	-1.0	-1.0	-1.0	-1.0	0.0	marker	peace	Peace	21	0418
-68006.925	-54748.89	-104112.495	-18279.54	0.0	0.0	0.0	0.0	0.0	0.0	0.0	0.0	0.0	0.0	0.0	0.0	0.0	0.0	146.13793103448276	0.0	0.066222975	-0.129943515	1.006284045	4.62378	1.25132	-1.7549	3267980.0	1776544926.247571	0.0	1.0	-1.0	-1.0	-1.0	-1.0	-1.0	-1.0	-1.0	-1.0	0.0	marker	peace	Peace	21	0418
-67982.805	-54760.365	-104186.925	-18307.8	0.0	0.0	0.0	0.0	0.0	0.0	0.0	0.0	0.0	0.0	0.0	0.0	0.0	0.0	146.13793103448276	0.0	0.066222975	-0.129943515	1.006284045	4.62378	1.25132	-1.7549	3267981.0	1776544926.247575	0.0	1.0	-1.0	-1.0	-1.0	-1.0	-1.0	-1.0	-1.0	-1.0	0.0	marker	peace	Peace	21	0418
-67913.86499999999	-54756.27	-104175.45	-18299.34	0.0	0.0	0.0	0.0	0.0	0.0	0.0	0.0	0.0	0.0	0.0	0.0	0.0	0.0	146.13793103448276	0.0	0.066222975	-0.129943515	1.006284045	4.62378	1.25132	-1.7549	3267982.0	1776544926.25064	0.0	1.0	-1.0	-1.0	-1.0	-1.0	-1.0	-1.0	-1.0	-1.0	0.0	marker	peace	Peace	21	0418
-67890.645	-54744.795	-104148.315	-18244.079999999998	0.0	0.0	0.0	0.0	0.0	0.0	0.0	0.0	0.0	0.0	0.0	0.0	0.0	0.0	146.13793103448276	0.0	0.066222975	-0.129943515	1.006284045	4.62378	1.25132	-1.7549	3267983.0	1776544926.250644	0.0	1.0	-1.0	-1.0	-1.0	-1.0	-1.0	-1.0	-1.0	-1.0	0.0	marker	peace	Peace	21	0418
-67927.31999999999	-54732.6	-104112.315	-18210.87	0.0	0.0	0.0	0.0	0.0	0.0	0.0	0.0	0.0	0.0	0.0	0.0	0.0	0.0	146.13793103448276	0.0	0.066222975	-0.129943515	1.006284045	4.62378	1.25132	-1.7549	3267984.0	1776544926.25463	0.0	1.0	-1.0	-1.0	-1.0	-1.0	-1.0	-1.0	-1.0	-1.0	0.0	marker	peace	Peace	21	0418
-67862.7	-54723.915	-104089.86	-18244.62	0.0	0.0	0.0	0.0	0.0	0.0	0.0	0.0	0.0	0.0	0.0	0.0	0.0	0.0	146.13793103448276	0.0	0.066222975	-0.129943515	1.006284045	4.62378	1.25132	-1.7549	3267985.0	1776544926.254634	0.0	1.0	-1.0	-1.0	-1.0	-1.0	-1.0	-1.0	-1.0	-1.0	0.0	marker	peace	Peace	21	0418
-67911.345	-54731.97	-104195.15999999999	-18321.03	0.0	0.0	0.0	0.0	0.0	0.0	0.0	0.0	0.0	0.0	0.0	0.0	0.0	0.0	146.13793103448276	0.0	0.066222975	-0.129943515	1.006284045	4.62378	1.25132	-1.7549	3267986.0	1776544926.258675	0.0	1.0	-1.0	-1.0	-1.0	-1.0	-1.0	-1.0	-1.0	-1.0	0.0	marker	peace	Peace	21	0418
-67965.255	-54733.454999999994	-104145.525	-18272.655	0.0	0.0	0.0	0.0	0.0	0.0	0.0	0.0	0.0	0.0	0.0	0.0	0.0	0.0	146.13793103448276	0.0	0.066222975	-0.129943515	1.006284045	4.62378	1.25132	-1.7549	3267987.0	1776544926.258679	0.0	1.0	-1.0	-1.0	-1.0	-1.0	-1.0	-1.0	-1.0	-1.0	0.0	marker	peace	Peace	21	0418
-67948.065	-54739.305	-104088.64499999999	-18217.215	0.0	0.0	0.0	0.0	0.0	0.0	0.0	0.0	0.0	0.0	0.0	0.0	0.0	0.0	146.13793103448276	0.0	0.066222975	-0.129943515	1.006284045	4.62378	1.25132	-1.7549	3267988.0	1776544926.262742	0.0	1.0	-1.0	-1.0	-1.0	-1.0	-1.0	-1.0	-1.0	-1.0	0.0	marker	peace	Peace	21	0418
-67863.645	-54757.665	-104112.405	-18216.0	0.0	0.0	0.0	0.0	0.0	0.0	0.0	0.0	0.0	0.0	0.0	0.0	0.0	0.0	146.13793103448276	0.0	0.066222975	-0.129943515	1.006284045	4.62378	1.25132	-1.7549	3267989.0	1776544926.262746	0.0	1.0	-1.0	-1.0	-1.0	-1.0	-1.0	-1.0	-1.0	-1.0	0.0	marker	peace	Peace	21	0418
-67897.665	-54768.329999999994	-104142.735	-18262.44	0.0	0.0	0.0	0.0	0.0	0.0	0.0	0.0	0.0	0.0	0.0	0.0	0.0	0.0	146.13793103448276	0.0	0.067809885	-0.11865204	1.01220444	2.1669199999999997	0.8392999999999999	-0.32045999999999997	3267990.0	1776544926.266808	0.0	1.0	-1.0	-1.0	-1.0	-1.0	-1.0	-1.0	-1.0	-1.0	0.0	marker	peace	Peace	21	0418
-67920.84	-54780.479999999996	-104170.40999999999	-18279.36	0.0	0.0	0.0	0.0	0.0	0.0	0.0	0.0	0.0	0.0	0.0	0.0	0.0	0.0	146.13793103448276	0.0	0.067809885	-0.11865204	1.01220444	2.1669199999999997	0.8392999999999999	-0.32045999999999997	3267991.0	1776544926.266811	0.0	1.0	-1.0	-1.0	-1.0	-1.0	-1.0	-1.0	-1.0	-1.0	0.0	marker	peace	Peace	21	0418
-67993.425	-54785.025	-104187.06	-18285.93	0.0	0.0	0.0	0.0	0.0	0.0	0.0	0.0	0.0	0.0	0.0	0.0	0.0	0.0	146.13793103448276	0.0	0.067809885	-0.11865204	1.01220444	2.1669199999999997	0.8392999999999999	-0.32045999999999997	3267992.0	1776544926.270803	0.0	1.0	-1.0	-1.0	-1.0	-1.0	-1.0	-1.0	-1.0	-1.0	0.0	marker	peace	Peace	21	0418
-67937.22	-54767.204999999994	-104109.61499999999	-18274.995	0.0	0.0	0.0	0.0	0.0	0.0	0.0	0.0	0.0	0.0	0.0	0.0	0.0	0.0	146.13793103448276	0.0	0.067809885	-0.11865204	1.01220444	2.1669199999999997	0.8392999999999999	-0.32045999999999997	3267993.0	1776544926.270807	0.0	1.0	-1.0	-1.0	-1.0	-1.0	-1.0	-1.0	-1.0	-1.0	0.0	marker	peace	Peace	21	0418
-67897.08	-54750.329999999994	-104097.28499999999	-18253.755	0.0	0.0	0.0	0.0	0.0	0.0	0.0	0.0	0.0	0.0	0.0	0.0	0.0	0.0	146.13793103448276	0.0	0.067809885	-0.11865204	1.01220444	2.1669199999999997	0.8392999999999999	-0.32045999999999997	3267994.0	1776544926.274724	0.0	1.0	-1.0	-1.0	-1.0	-1.0	-1.0	-1.0	-1.0	-1.0	0.0	marker	peace	Peace	21	0418
-67918.635	-54739.619999999995	-104155.69499999999	-18258.57	0.0	0.0	0.0	0.0	0.0	0.0	0.0	0.0	0.0	0.0	0.0	0.0	0.0	0.0	146.13793103448276	0.0	0.067809885	-0.11865204	1.01220444	2.1669199999999997	0.8392999999999999	-0.32045999999999997	3267995.0	1776544926.274729	0.0	1.0	-1.0	-1.0	-1.0	-1.0	-1.0	-1.0	-1.0	-1.0	0.0	marker	peace	Peace	21	0418
-67922.505	-54740.475	-104166.72	-18253.17	0.0	0.0	0.0	0.0	0.0	0.0	0.0	0.0	0.0	0.0	0.0	0.0	0.0	0.0	146.13793103448276	0.0	0.067809885	-0.11865204	1.01220444	2.1669199999999997	0.8392999999999999	-0.32045999999999997	3267996.0	1776544926.27883	0.0	1.0	-1.0	-1.0	-1.0	-1.0	-1.0	-1.0	-1.0	-1.0	0.0	marker	peace	Peace	21	0418
-67905.675	-54738.63	-104135.12999999999	-18218.114999999998	0.0	0.0	0.0	0.0	0.0	0.0	0.0	0.0	0.0	0.0	0.0	0.0	0.0	0.0	146.13793103448276	0.0	0.067809885	-0.11865204	1.01220444	2.1669199999999997	0.8392999999999999	-0.32045999999999997	3267997.0	1776544926.278835	0.0	1.0	-1.0	-1.0	-1.0	-1.0	-1.0	-1.0	-1.0	-1.0	0.0	marker	peace	Peace	21	0418
-67816.62	-54726.84	-104030.19	-18141.84	0.0	0.0	0.0	0.0	0.0	0.0	0.0	0.0	0.0	0.0	0.0	0.0	0.0	0.0	146.13793103448276	0.0	0.067809885	-0.11865204	1.01220444	2.1669199999999997	0.8392999999999999	-0.32045999999999997	3267998.0	1776544926.282855	0.0	1.0	-1.0	-1.0	-1.0	-1.0	-1.0	-1.0	-1.0	-1.0	0.0	marker	peace	Peace	21	0418
-67970.295	-54737.189999999995	-104170.76999999999	-18292.815	0.0	0.0	0.0	0.0	0.0	0.0	0.0	0.0	0.0	0.0	0.0	0.0	0.0	0.0	146.13793103448276	0.0	0.067809885	-0.11865204	1.01220444	2.1669199999999997	0.8392999999999999	-0.32045999999999997	3267999.0	1776544926.282864	0.0	1.0	-1.0	-1.0	-1.0	-1.0	-1.0	-1.0	-1.0	-1.0	0.0	marker	peace	Peace	21	0418
-67966.29	-54696.509999999995	-104141.565	-18306.45	0.0	0.0	0.0	0.0	0.0	0.0	0.0	0.0	0.0	0.0	0.0	0.0	0.0	0.0	146.13793103448276	0.0	0.06384261	-0.10815402	1.01696517	3.25038	0.44254	-0.28994	3268000.0	1776544926.286878	0.0	1.0	-1.0	-1.0	-1.0	-1.0	-1.0	-1.0	-1.0	-1.0	0.0	marker	peace	Peace	21	0418
-67916.88	-54599.085	-104096.565	-18278.145	0.0	0.0	0.0	0.0	0.0	0.0	0.0	0.0	0.0	0.0	0.0	0.0	0.0	0.0	146.13793103448276	0.0	0.06384261	-0.10815402	1.01696517	3.25038	0.44254	-0.28994	3268001.0	1776544926.286882	0.0	1.0	-1.0	-1.0	-1.0	-1.0	-1.0	-1.0	-1.0	-1.0	0.0	marker	peace	Peace	21	0418
-67905.495	-54578.97	-104066.685	-18239.489999999998	0.0	0.0	0.0	0.0	0.0	0.0	0.0	0.0	0.0	0.0	0.0	0.0	0.0	0.0	146.13793103448276	0.0	0.06384261	-0.10815402	1.01696517	3.25038	0.44254	-0.28994	3268002.0	1776544926.29075	0.0	1.0	-1.0	-1.0	-1.0	-1.0	-1.0	-1.0	-1.0	-1.0	0.0	marker	peace	Peace	21	0418
-67955.44499999999	-54580.545	-104174.19	-18311.895	0.0	0.0	0.0	0.0	0.0	0.0	0.0	0.0	0.0	0.0	0.0	0.0	0.0	0.0	146.13793103448276	0.0	0.06384261	-0.10815402	1.01696517	3.25038	0.44254	-0.28994	3268003.0	1776544926.290755	0.0	1.0	-1.0	-1.0	-1.0	-1.0	-1.0	-1.0	-1.0	-1.0	0.0	marker	peace	Peace	21	0418
-67977.855	-54579.869999999995	-104200.29	-18300.105	0.0	0.0	0.0	0.0	0.0	0.0	0.0	0.0	0.0	0.0	0.0	0.0	0.0	0.0	146.13793103448276	0.0	0.06384261	-0.10815402	1.01696517	3.25038	0.44254	-0.28994	3268004.0	1776544926.294802	0.0	1.0	-1.0	-1.0	-1.0	-1.0	-1.0	-1.0	-1.0	-1.0	0.0	marker	peace	Peace	21	0418
-67914.98999999999	-54586.845	-104220.94499999999	-18248.085	0.0	0.0	0.0	0.0	0.0	0.0	0.0	0.0	0.0	0.0	0.0	0.0	0.0	0.0	146.13793103448276	0.0	0.06384261	-0.10815402	1.01696517	3.25038	0.44254	-0.28994	3268005.0	1776544926.294813	0.0	1.0	-1.0	-1.0	-1.0	-1.0	-1.0	-1.0	-1.0	-1.0	0.0	marker	peace	Peace	21	0418
-67970.565	-54596.295	-104215.95	-18283.23	0.0	0.0	0.0	0.0	0.0	0.0	0.0	0.0	0.0	0.0	0.0	0.0	0.0	0.0	146.13793103448276	0.0	0.06384261	-0.10815402	1.01696517	3.25038	0.44254	-0.28994	3268006.0	1776544926.298837	0.0	1.0	-1.0	-1.0	-1.0	-1.0	-1.0	-1.0	-1.0	-1.0	0.0	marker	peace	Peace	21	0418
-67931.595	-54599.04	-104209.155	-18310.05	0.0	0.0	0.0	0.0	0.0	0.0	0.0	0.0	0.0	0.0	0.0	0.0	0.0	0.0	146.13793103448276	0.0	0.06384261	-0.10815402	1.01696517	3.25038	0.44254	-0.28994	3268007.0	1776544926.298842	0.0	1.0	-1.0	-1.0	-1.0	-1.0	-1.0	-1.0	-1.0	-1.0	0.0	marker	peace	Peace	21	0418
-67874.175	-54593.549999999996	-104065.065	-18237.239999999998	0.0	0.0	0.0	0.0	0.0	0.0	0.0	0.0	0.0	0.0	0.0	0.0	0.0	0.0	146.13793103448276	0.0	0.06384261	-0.10815402	1.01696517	3.25038	0.44254	-0.28994	3268008.0	1776544926.304238	0.0	1.0	-1.0	-1.0	-1.0	-1.0	-1.0	-1.0	-1.0	-1.0	0.0	marker	peace	Peace	21	0418
-67865.895	-54587.43	-103995.675	-18207.045	0.0	0.0	0.0	0.0	0.0	0.0	0.0	0.0	0.0	0.0	0.0	0.0	0.0	0.0	146.13793103448276	0.0	0.06384261	-0.10815402	1.01696517	3.25038	0.44254	-0.28994	3268009.0	1776544926.304242	0.0	1.0	-1.0	-1.0	-1.0	-1.0	-1.0	-1.0	-1.0	-1.0	0.0	marker	peace	Peace	21	0418
-67850.91	-54582.84	-104167.845	-18232.065	0.0	0.0	0.0	0.0	0.0	0.0	0.0	0.0	0.0	0.0	0.0	0.0	0.0	0.0	146.13793103448276	0.0	0.06945783	-0.113708205	1.010312355	3.2351199999999998	0.85456	0.50358	3268010.0	1776544926.306863	0.0	1.0	-1.0	-1.0	-1.0	-1.0	-1.0	-1.0	-1.0	-1.0	0.0	marker	peace	Peace	21	0418
-67950.18	-54591.479999999996	-104256.765	-18320.04	0.0	0.0	0.0	0.0	0.0	0.0	0.0	0.0	0.0	0.0	0.0	0.0	0.0	0.0	146.13793103448276	0.0	0.06945783	-0.113708205	1.010312355	3.2351199999999998	0.85456	0.50358	3268011.0	1776544926.306867	0.0	1.0	-1.0	-1.0	-1.0	-1.0	-1.0	-1.0	-1.0	-1.0	0.0	marker	peace	Peace	21	0418
-68012.055	-54595.979999999996	-104209.83	-18286.605	0.0	0.0	0.0	0.0	0.0	0.0	0.0	0.0	0.0	0.0	0.0	0.0	0.0	0.0	146.13793103448276	0.0	0.06945783	-0.113708205	1.010312355	3.2351199999999998	0.85456	0.50358	3268012.0	1776544926.310872	0.0	1.0	-1.0	-1.0	-1.0	-1.0	-1.0	-1.0	-1.0	-1.0	0.0	marker	peace	Peace	21	0418
-67905.09	-54590.13	-104168.06999999999	-18281.565	0.0	0.0	0.0	0.0	0.0	0.0	0.0	0.0	0.0	0.0	0.0	0.0	0.0	0.0	146.13793103448276	0.0	0.06945783	-0.113708205	1.010312355	3.2351199999999998	0.85456	0.50358	3268013.0	1776544926.310877	0.0	1.0	-1.0	-1.0	-1.0	-1.0	-1.0	-1.0	-1.0	-1.0	0.0	marker	peace	Peace	21	0418
-67942.8	-54600.165	-104156.37	-18268.92	0.0	0.0	0.0	0.0	0.0	0.0	0.0	0.0	0.0	0.0	0.0	0.0	0.0	0.0	146.13793103448276	0.0	0.06945783	-0.113708205	1.010312355	3.2351199999999998	0.85456	0.50358	3268014.0	1776544926.314854	0.0	1.0	-1.0	-1.0	-1.0	-1.0	-1.0	-1.0	-1.0	-1.0	0.0	marker	peace	Peace	21	0418
-67910.805	-54608.31	-104157.405	-18279.63	0.0	0.0	0.0	0.0	0.0	0.0	0.0	0.0	0.0	0.0	0.0	0.0	0.0	0.0	146.13793103448276	0.0	0.06945783	-0.113708205	1.010312355	3.2351199999999998	0.85456	0.50358	3268015.0	1776544926.314858	0.0	1.0	-1.0	-1.0	-1.0	-1.0	-1.0	-1.0	-1.0	-1.0	0.0	marker	peace	Peace	21	0418
-67897.44	-54618.435	-104129.09999999999	-18259.649999999998	0.0	0.0	0.0	0.0	0.0	0.0	0.0	0.0	0.0	0.0	0.0	0.0	0.0	0.0	146.13793103448276	0.0	0.06945783	-0.113708205	1.010312355	3.2351199999999998	0.85456	0.50358	3268016.0	1776544926.318927	0.0	1.0	-1.0	-1.0	-1.0	-1.0	-1.0	-1.0	-1.0	-1.0	0.0	marker	peace	Peace	21	0418
-67848.93	-54612.09	-104075.235	-18218.43	0.0	0.0	0.0	0.0	0.0	0.0	0.0	0.0	0.0	0.0	0.0	0.0	0.0	0.0	146.13793103448276	0.0	0.06945783	-0.113708205	1.010312355	3.2351199999999998	0.85456	0.50358	3268017.0	1776544926.318931	0.0	1.0	-1.0	-1.0	-1.0	-1.0	-1.0	-1.0	-1.0	-1.0	0.0	marker	peace	Peace	21	0418
-67750.245	-54599.805	-104012.235	-18155.565	0.0	0.0	0.0	0.0	0.0	0.0	0.0	0.0	0.0	0.0	0.0	0.0	0.0	0.0	146.13793103448276	0.0	0.06945783	-0.113708205	1.010312355	3.2351199999999998	0.85456	0.50358	3268018.0	1776544926.322838	0.0	1.0	-1.0	-1.0	-1.0	-1.0	-1.0	-1.0	-1.0	-1.0	0.0	marker	peace	Peace	21	0418
-67840.605	-54646.875	-104056.065	-18177.704999999998	0.0	0.0	0.0	0.0	0.0	0.0	0.0	0.0	0.0	0.0	0.0	0.0	0.0	0.0	146.13793103448276	0.0	0.06945783	-0.113708205	1.010312355	3.2351199999999998	0.85456	0.50358	3268019.0	1776544926.322842	0.0	1.0	-1.0	-1.0	-1.0	-1.0	-1.0	-1.0	-1.0	-1.0	0.0	marker	peace	Peace	21	0418
-67962.23999999999	-54680.579999999994	-104140.845	-18261.315	0.0	0.0	0.0	0.0	0.0	0.0	0.0	0.0	0.0	0.0	0.0	0.0	0.0	0.0	146.13793103448276	0.0	0.07348614	-0.128966955	0.9948705	3.37246	1.7396399999999999	-0.59514	3268020.0	1776544926.326964	0.0	1.0	-1.0	-1.0	-1.0	-1.0	-1.0	-1.0	-1.0	-1.0	0.0	marker	peace	Peace	21	0418
-67978.395	-54692.549999999996	-104129.37	-18300.96	0.0	0.0	0.0	0.0	0.0	0.0	0.0	0.0	0.0	0.0	0.0	0.0	0.0	0.0	146.13793103448276	0.0	0.07348614	-0.128966955	0.9948705	3.37246	1.7396399999999999	-0.59514	3268021.0	1776544926.326968	0.0	1.0	-1.0	-1.0	-1.0	-1.0	-1.0	-1.0	-1.0	-1.0	0.0	marker	peace	Peace	21	0418
-67950.27	-54702.765	-104109.39	-18280.53	0.0	0.0	0.0	0.0	0.0	0.0	0.0	0.0	0.0	0.0	0.0	0.0	0.0	0.0	146.13793103448276	0.0	0.07348614	-0.128966955	0.9948705	3.37246	1.7396399999999999	-0.59514	3268022.0	1776544926.331704	0.0	1.0	-1.0	-1.0	-1.0	-1.0	-1.0	-1.0	-1.0	-1.0	0.0	marker	peace	Peace	21	0418
-67916.61	-54709.965	-104095.665	-18213.434999999998	0.0	0.0	0.0	0.0	0.0	0.0	0.0	0.0	0.0	0.0	0.0	0.0	0.0	0.0	146.13793103448276	0.0	0.07348614	-0.128966955	0.9948705	3.37246	1.7396399999999999	-0.59514	3268023.0	1776544926.331709	0.0	1.0	-1.0	-1.0	-1.0	-1.0	-1.0	-1.0	-1.0	-1.0	0.0	marker	peace	Peace	21	0418
-67915.575	-54715.905	-104134.14	-18245.61	0.0	0.0	0.0	0.0	0.0	0.0	0.0	0.0	0.0	0.0	0.0	0.0	0.0	0.0	146.13793103448276	0.0	0.07348614	-0.128966955	0.9948705	3.37246	1.7396399999999999	-0.59514	3268024.0	1776544926.334987	0.0	1.0	-1.0	-1.0	-1.0	-1.0	-1.0	-1.0	-1.0	-1.0	0.0	marker	peace	Peace	21	0418
-67934.7	-54724.59	-104232.42	-18323.864999999998	0.0	0.0	0.0	0.0	0.0	0.0	0.0	0.0	0.0	0.0	0.0	0.0	0.0	0.0	146.13793103448276	0.0	0.07348614	-0.128966955	0.9948705	3.37246	1.7396399999999999	-0.59514	3268025.0	1776544926.334992	0.0	1.0	-1.0	-1.0	-1.0	-1.0	-1.0	-1.0	-1.0	-1.0	0.0	marker	peace	Peace	21	0418
-67843.125	-54710.325	-104097.105	-18270.09	0.0	0.0	0.0	0.0	0.0	0.0	0.0	0.0	0.0	0.0	0.0	0.0	0.0	0.0	146.13793103448276	0.0	0.07348614	-0.128966955	0.9948705	3.37246	1.7396399999999999	-0.59514	3268026.0	1776544926.340802	0.0	1.0	-1.0	-1.0	-1.0	-1.0	-1.0	-1.0	-1.0	-1.0	0.0	marker	peace	Peace	21	0418
-67878.135	-54698.13	-104008.815	-18255.195	0.0	0.0	0.0	0.0	0.0	0.0	0.0	0.0	0.0	0.0	0.0	0.0	0.0	0.0	146.13793103448276	0.0	0.07348614	-0.128966955	0.9948705	3.37246	1.7396399999999999	-0.59514	3268027.0	1776544926.340806	0.0	1.0	-1.0	-1.0	-1.0	-1.0	-1.0	-1.0	-1.0	-1.0	0.0	marker	peace	Peace	21	0418
-67901.08499999999	-54691.92	-104104.89	-18222.75	0.0	0.0	0.0	0.0	0.0	0.0	0.0	0.0	0.0	0.0	0.0	0.0	0.0	0.0	146.13793103448276	0.0	0.07348614	-0.128966955	0.9948705	3.37246	1.7396399999999999	-0.59514	3268028.0	1776544926.343955	0.0	1.0	-1.0	-1.0	-1.0	-1.0	-1.0	-1.0	-1.0	-1.0	0.0	marker	peace	Peace	21	0418
-67945.815	-54702.585	-104223.95999999999	-18202.905	0.0	0.0	0.0	0.0	0.0	0.0	0.0	0.0	0.0	0.0	0.0	0.0	0.0	0.0	146.13793103448276	0.0	0.07348614	-0.128966955	0.9948705	3.37246	1.7396399999999999	-0.59514	3268029.0	1776544926.343959	0.0	1.0	-1.0	-1.0	-1.0	-1.0	-1.0	-1.0	-1.0	-1.0	0.0	marker	peace	Peace	21	0418
-67902.885	-54720.9	-104193.9	-18243.405	0.0	0.0	0.0	0.0	0.0	0.0	0.0	0.0	0.0	0.0	0.0	0.0	0.0	0.0	146.13793103448276	0.0	0.060119475	-0.126891765	1.00842027	3.15882	0.9308599999999999	-1.0834599999999999	3268030.0	1776544926.350821	0.0	1.0	-1.0	-1.0	-1.0	-1.0	-1.0	-1.0	-1.0	-1.0	0.0	marker	peace	Peace	21	0418
-68003.86499999999	-54735.525	-104216.265	-18317.16	0.0	0.0	0.0	0.0	0.0	0.0	0.0	0.0	0.0	0.0	0.0	0.0	0.0	0.0	146.13793103448276	0.0	0.060119475	-0.126891765	1.00842027	3.15882	0.9308599999999999	-1.0834599999999999	3268031.0	1776544926.350826	0.0	1.0	-1.0	-1.0	-1.0	-1.0	-1.0	-1.0	-1.0	-1.0	0.0	marker	peace	Peace	21	0418
-67947.12	-54719.64	-104134.455	-18285.03	0.0	0.0	0.0	0.0	0.0	0.0	0.0	0.0	0.0	0.0	0.0	0.0	0.0	0.0	146.13793103448276	0.0	0.060119475	-0.126891765	1.00842027	3.15882	0.9308599999999999	-1.0834599999999999	3268032.0	1776544926.350831	0.0	1.0	-1.0	-1.0	-1.0	-1.0	-1.0	-1.0	-1.0	-1.0	0.0	marker	peace	Peace	21	0418
-67965.75	-54717.479999999996	-104155.155	-18290.16	0.0	0.0	0.0	0.0	0.0	0.0	0.0	0.0	0.0	0.0	0.0	0.0	0.0	0.0	146.13793103448276	0.0	0.060119475	-0.126891765	1.00842027	3.15882	0.9308599999999999	-1.0834599999999999	3268033.0	1776544926.350834	0.0	1.0	-1.0	-1.0	-1.0	-1.0	-1.0	-1.0	-1.0	-1.0	0.0	marker	peace	Peace	21	0418
-67934.88	-54728.369999999995	-104220.98999999999	-18286.02	0.0	0.0	0.0	0.0	0.0	0.0	0.0	0.0	0.0	0.0	0.0	0.0	0.0	0.0	146.13793103448276	0.0	0.060119475	-0.126891765	1.00842027	3.15882	0.9308599999999999	-1.0834599999999999	3268034.0	1776544926.354971	0.0	1.0	-1.0	-1.0	-1.0	-1.0	-1.0	-1.0	-1.0	-1.0	0.0	marker	peace	Peace	21	0418
-67864.31999999999	-54716.939999999995	-104191.29	-18260.774999999998	0.0	0.0	0.0	0.0	0.0	0.0	0.0	0.0	0.0	0.0	0.0	0.0	0.0	0.0	146.13793103448276	0.0	0.060119475	-0.126891765	1.00842027	3.15882	0.9308599999999999	-1.0834599999999999	3268035.0	1776544926.354976	0.0	1.0	-1.0	-1.0	-1.0	-1.0	-1.0	-1.0	-1.0	-1.0	0.0	marker	peace	Peace	21	0418
-67864.68	-54699.255	-104122.53	-18235.844999999998	0.0	0.0	0.0	0.0	0.0	0.0	0.0	0.0	0.0	0.0	0.0	0.0	0.0	0.0	146.13793103448276	0.0	0.060119475	-0.126891765	1.00842027	3.15882	0.9308599999999999	-1.0834599999999999	3268036.0	1776544926.359006	0.0	1.0	-1.0	-1.0	-1.0	-1.0	-1.0	-1.0	-1.0	-1.0	0.0	marker	peace	Peace	21	0418
-67901.625	-54691.2	-104082.705	-18216.855	0.0	0.0	0.0	0.0	0.0	0.0	0.0	0.0	0.0	0.0	0.0	0.0	0.0	0.0	146.13793103448276	0.0	0.060119475	-0.126891765	1.00842027	3.15882	0.9308599999999999	-1.0834599999999999	3268037.0	1776544926.35901	0.0	1.0	-1.0	-1.0	-1.0	-1.0	-1.0	-1.0	-1.0	-1.0	0.0	marker	peace	Peace	21	0418
-67817.565	-54688.634999999995	-104043.465	-18165.195	0.0	0.0	0.0	0.0	0.0	0.0	0.0	0.0	0.0	0.0	0.0	0.0	0.0	0.0	146.13793103448276	0.0	0.060119475	-0.126891765	1.00842027	3.15882	0.9308599999999999	-1.0834599999999999	3268038.0	1776544926.363013	0.0	1.0	-1.0	-1.0	-1.0	-1.0	-1.0	-1.0	-1.0	-1.0	0.0	marker	peace	Peace	21	0418
-67896.58499999999	-54687.284999999996	-104179.31999999999	-18262.26	0.0	0.0	0.0	0.0	0.0	0.0	0.0	0.0	0.0	0.0	0.0	0.0	0.0	0.0	146.13793103448276	0.0	0.060119475	-0.126891765	1.00842027	3.15882	0.9308599999999999	-1.0834599999999999	3268039.0	1776544926.363018	0.0	1.0	-1.0	-1.0	-1.0	-1.0	-1.0	-1.0	-1.0	-1.0	0.0	marker	peace	Peace	21	0418
-67986.405	-54686.88	-104269.00499999999	-18340.875	0.0	0.0	0.0	0.0	0.0	0.0	0.0	0.0	0.0	0.0	0.0	0.0	0.0	0.0	146.13793103448276	0.0	0.04736316	-0.11413545	1.0229466	1.89224	-0.42728	-0.39676	3268040.0	1776544926.367144	0.0	1.0	-1.0	-1.0	-1.0	-1.0	-1.0	-1.0	-1.0	-1.0	0.0	marker	peace	Peace	21	0418
-67893.84	-54680.805	-104173.245	-18240.48	0.0	0.0	0.0	0.0	0.0	0.0	0.0	0.0	0.0	0.0	0.0	0.0	0.0	0.0	146.13793103448276	0.0	0.04736316	-0.11413545	1.0229466	1.89224	-0.42728	-0.39676	3268041.0	1776544926.367148	0.0	1.0	-1.0	-1.0	-1.0	-1.0	-1.0	-1.0	-1.0	-1.0	0.0	marker	peace	Peace	21	0418
-67825.035	-54668.115	-104021.14499999999	-18127.575	0.0	0.0	0.0	0.0	0.0	0.0	0.0	0.0	0.0	0.0	0.0	0.0	0.0	0.0	146.13793103448276	0.0	0.04736316	-0.11413545	1.0229466	1.89224	-0.42728	-0.39676	3268042.0	1776544926.371159	0.0	1.0	-1.0	-1.0	-1.0	-1.0	-1.0	-1.0	-1.0	-1.0	0.0	marker	peace	Peace	21	0418
-67919.265	-54665.595	-104143.14	-18265.23	0.0	0.0	0.0	0.0	0.0	0.0	0.0	0.0	0.0	0.0	0.0	0.0	0.0	0.0	146.13793103448276	0.0	0.04736316	-0.11413545	1.0229466	1.89224	-0.42728	-0.39676	3268043.0	1776544926.371188	0.0	1.0	-1.0	-1.0	-1.0	-1.0	-1.0	-1.0	-1.0	-1.0	0.0	marker	peace	Peace	21	0418
-67930.605	-54658.034999999996	-104148.09	-18282.105	0.0	0.0	0.0	0.0	0.0	0.0	0.0	0.0	0.0	0.0	0.0	0.0	0.0	0.0	146.13793103448276	0.0	0.04736316	-0.11413545	1.0229466	1.89224	-0.42728	-0.39676	3268044.0	1776544926.376215	0.0	1.0	-1.0	-1.0	-1.0	-1.0	-1.0	-1.0	-1.0	-1.0	0.0	marker	peace	Peace	21	0418
-67880.43	-54649.53	-104104.39499999999	-18247.23	0.0	0.0	0.0	0.0	0.0	0.0	0.0	0.0	0.0	0.0	0.0	0.0	0.0	0.0	146.13793103448276	0.0	0.04736316	-0.11413545	1.0229466	1.89224	-0.42728	-0.39676	3268045.0	1776544926.376239	0.0	1.0	-1.0	-1.0	-1.0	-1.0	-1.0	-1.0	-1.0	-1.0	0.0	marker	peace	Peace	21	0418
-67891.95	-54681.525	-104125.86	-18250.695	0.0	0.0	0.0	0.0	0.0	0.0	0.0	0.0	0.0	0.0	0.0	0.0	0.0	0.0	146.13793103448276	0.0	0.04736316	-0.11413545	1.0229466	1.89224	-0.42728	-0.39676	3268046.0	1776544926.379082	0.0	1.0	-1.0	-1.0	-1.0	-1.0	-1.0	-1.0	-1.0	-1.0	0.0	marker	peace	Peace	21	0418
-67986.045	-54732.42	-104166.54	-18304.38	0.0	0.0	0.0	0.0	0.0	0.0	0.0	0.0	0.0	0.0	0.0	0.0	0.0	0.0	146.13793103448276	0.0	0.04736316	-0.11413545	1.0229466	1.89224	-0.42728	-0.39676	3268047.0	1776544926.379104	0.0	1.0	-1.0	-1.0	-1.0	-1.0	-1.0	-1.0	-1.0	-1.0	0.0	marker	peace	Peace	21	0418
-67964.805	-54744.165	-104123.34	-18303.344999999998	0.0	0.0	0.0	0.0	0.0	0.0	0.0	0.0	0.0	0.0	0.0	0.0	0.0	0.0	146.13793103448276	0.0	0.04736316	-0.11413545	1.0229466	1.89224	-0.42728	-0.39676	3268048.0	1776544926.383137	0.0	1.0	-1.0	-1.0	-1.0	-1.0	-1.0	-1.0	-1.0	-1.0	0.0	marker	peace	Peace	21	0418
-67913.955	-54749.88	-104036.715	-18251.864999999998	0.0	0.0	0.0	0.0	0.0	0.0	0.0	0.0	0.0	0.0	0.0	0.0	0.0	0.0	146.13793103448276	0.0	0.04736316	-0.11413545	1.0229466	1.89224	-0.42728	-0.39676	3268049.0	1776544926.383155	0.0	1.0	-1.0	-1.0	-1.0	-1.0	-1.0	-1.0	-1.0	-1.0	0.0	marker	peace	Peace	21	0418
-67897.305	-54754.38	-104043.735	-18271.665	0.0	0.0	0.0	0.0	0.0	0.0	0.0	0.0	0.0	0.0	0.0	0.0	0.0	0.0	146.13793103448276	0.0	0.06286605	-0.11022921000000001	1.019223465	1.3428799999999999	-0.6867	0.6867	3268050.0	1776544926.387541	0.0	1.0	-1.0	-1.0	-1.0	-1.0	-1.0	-1.0	-1.0	-1.0	0.0	marker	peace	Peace	21	0418
-67970.655	-54761.895	-104297.12999999999	-18319.005	0.0	0.0	0.0	0.0	0.0	0.0	0.0	0.0	0.0	0.0	0.0	0.0	0.0	0.0	146.13793103448276	0.0	0.06286605	-0.11022921000000001	1.019223465	1.3428799999999999	-0.6867	0.6867	3268051.0	1776544926.387571	0.0	1.0	-1.0	-1.0	-1.0	-1.0	-1.0	-1.0	-1.0	-1.0	0.0	marker	peace	Peace	21	0418
-67894.33499999999	-54752.085	-104253.525	-18281.969999999998	0.0	0.0	0.0	0.0	0.0	0.0	0.0	0.0	0.0	0.0	0.0	0.0	0.0	0.0	146.13793103448276	0.0	0.06286605	-0.11022921000000001	1.019223465	1.3428799999999999	-0.6867	0.6867	3268052.0	1776544926.39123	0.0	1.0	-1.0	-1.0	-1.0	-1.0	-1.0	-1.0	-1.0	-1.0	0.0	marker	peace	Peace	21	0418
-67816.89	-54740.384999999995	-103954.545	-18191.07	0.0	0.0	0.0	0.0	0.0	0.0	0.0	0.0	0.0	0.0	0.0	0.0	0.0	0.0	146.13793103448276	0.0	0.06286605	-0.11022921000000001	1.019223465	1.3428799999999999	-0.6867	0.6867	3268053.0	1776544926.391255	0.0	1.0	-1.0	-1.0	-1.0	-1.0	-1.0	-1.0	-1.0	-1.0	0.0	marker	peace	Peace	21	0418
-67797.63	-54739.89	-104042.565	-18140.805	0.0	0.0	0.0	0.0	0.0	0.0	0.0	0.0	0.0	0.0	0.0	0.0	0.0	0.0	146.13793103448276	0.0	0.06286605	-0.11022921000000001	1.019223465	1.3428799999999999	-0.6867	0.6867	3268054.0	1776544926.395286	0.0	1.0	-1.0	-1.0	-1.0	-1.0	-1.0	-1.0	-1.0	-1.0	0.0	marker	peace	Peace	21	0418
-68004.27	-54764.28	-104323.815	-18328.274999999998	0.0	0.0	0.0	0.0	0.0	0.0	0.0	0.0	0.0	0.0	0.0	0.0	0.0	0.0	146.13793103448276	0.0	0.06286605	-0.11022921000000001	1.019223465	1.3428799999999999	-0.6867	0.6867	3268055.0	1776544926.395318	0.0	1.0	-1.0	-1.0	-1.0	-1.0	-1.0	-1.0	-1.0	-1.0	0.0	marker	peace	Peace	21	0418
-68067.765	-54771.345	-104328.045	-18352.844999999998	0.0	0.0	0.0	0.0	0.0	0.0	0.0	0.0	0.0	0.0	0.0	0.0	0.0	0.0	146.13793103448276	0.0	0.06286605	-0.11022921000000001	1.019223465	1.3428799999999999	-0.6867	0.6867	3268056.0	1776544926.399172	0.0	1.0	-1.0	-1.0	-1.0	-1.0	-1.0	-1.0	-1.0	-1.0	0.0	marker	peace	Peace	21	0418
-67983.345	-54758.744999999995	-104178.59999999999	-18265.815	0.0	0.0	0.0	0.0	0.0	0.0	0.0	0.0	0.0	0.0	0.0	0.0	0.0	0.0	146.13793103448276	0.0	0.06286605	-0.11022921000000001	1.019223465	1.3428799999999999	-0.6867	0.6867	3268057.0	1776544926.399194	0.0	1.0	-1.0	-1.0	-1.0	-1.0	-1.0	-1.0	-1.0	-1.0	0.0	marker	peace	Peace	21	0418
-67909.5	-54750.689999999995	-104127.12	-18263.52	0.0	0.0	0.0	0.0	0.0	0.0	0.0	0.0	0.0	0.0	0.0	0.0	0.0	0.0	146.13793103448276	0.0	0.06286605	-0.11022921000000001	1.019223465	1.3428799999999999	-0.6867	0.6867	3268058.0	1776544926.408259	0.0	1.0	-1.0	-1.0	-1.0	-1.0	-1.0	-1.0	-1.0	-1.0	0.0	marker	peace	Peace	21	0418
-67876.29	-54744.165	-104117.53499999999	-18217.89	0.0	0.0	0.0	0.0	0.0	0.0	0.0	0.0	0.0	0.0	0.0	0.0	0.0	0.0	146.13793103448276	0.0	0.06286605	-0.11022921000000001	1.019223465	1.3428799999999999	-0.6867	0.6867	3268059.0	1776544926.408277	0.0	1.0	-1.0	-1.0	-1.0	-1.0	-1.0	-1.0	-1.0	-1.0	0.0	marker	peace	Peace	21	0418
-67864.23	-54733.275	-104091.39	-18170.55	0.0	0.0	0.0	0.0	0.0	0.0	0.0	0.0	0.0	0.0	0.0	0.0	0.0	0.0	146.13793103448276	0.0	0.072082335	-0.11938446	1.014951015	2.45686	-0.48832	0.15259999999999999	3268060.0	1776544926.408299	0.0	1.0	-1.0	-1.0	-1.0	-1.0	-1.0	-1.0	-1.0	-1.0	0.0	marker	peace	Peace	21	0418
-67924.575	-54728.28	-104185.08	-18276.75	0.0	0.0	0.0	0.0	0.0	0.0	0.0	0.0	0.0	0.0	0.0	0.0	0.0	0.0	146.13793103448276	0.0	0.072082335	-0.11938446	1.014951015	2.45686	-0.48832	0.15259999999999999	3268061.0	1776544926.408309	0.0	1.0	-1.0	-1.0	-1.0	-1.0	-1.0	-1.0	-1.0	-1.0	0.0	marker	peace	Peace	21	0418
-67971.555	-54727.784999999996	-104234.04	-18333.54	0.0	0.0	0.0	0.0	0.0	0.0	0.0	0.0	0.0	0.0	0.0	0.0	0.0	0.0	146.13793103448276	0.0	0.072082335	-0.11938446	1.014951015	2.45686	-0.48832	0.15259999999999999	3268062.0	1776544926.411297	0.0	1.0	-1.0	-1.0	-1.0	-1.0	-1.0	-1.0	-1.0	-1.0	0.0	marker	peace	Peace	21	0418
-67954.23	-54723.869999999995	-104190.075	-18325.575	0.0	0.0	0.0	0.0	0.0	0.0	0.0	0.0	0.0	0.0	0.0	0.0	0.0	0.0	146.13793103448276	0.0	0.072082335	-0.11938446	1.014951015	2.45686	-0.48832	0.15259999999999999	3268063.0	1776544926.41132	0.0	1.0	-1.0	-1.0	-1.0	-1.0	-1.0	-1.0	-1.0	-1.0	0.0	marker	peace	Peace	21	0418
-67935.015	-54743.985	-104165.37	-18276.48	0.0	0.0	0.0	0.0	0.0	0.0	0.0	0.0	0.0	0.0	0.0	0.0	0.0	0.0	146.13793103448276	0.0	0.072082335	-0.11938446	1.014951015	2.45686	-0.48832	0.15259999999999999	3268064.0	1776544926.415239	0.0	1.0	-1.0	-1.0	-1.0	-1.0	-1.0	-1.0	-1.0	-1.0	0.0	marker	peace	Peace	21	0418
-67932.315	-54804.24	-104176.53	-18255.375	0.0	0.0	0.0	0.0	0.0	0.0	0.0	0.0	0.0	0.0	0.0	0.0	0.0	0.0	146.13793103448276	0.0	0.072082335	-0.11938446	1.014951015	2.45686	-0.48832	0.15259999999999999	3268065.0	1776544926.415261	0.0	1.0	-1.0	-1.0	-1.0	-1.0	-1.0	-1.0	-1.0	-1.0	0.0	marker	peace	Peace	21	0418
-67920.93	-54817.65	-104110.47	-18236.34	0.0	0.0	0.0	0.0	0.0	0.0	0.0	0.0	0.0	0.0	0.0	0.0	0.0	0.0	146.13793103448276	0.0	0.072082335	-0.11938446	1.014951015	2.45686	-0.48832	0.15259999999999999	3268066.0	1776544926.41937	0.0	1.0	-1.0	-1.0	-1.0	-1.0	-1.0	-1.0	-1.0	-1.0	0.0	marker	peace	Peace	21	0418
-67905.405	-54814.86	-104103.765	-18240.524999999998	0.0	0.0	0.0	0.0	0.0	0.0	0.0	0.0	0.0	0.0	0.0	0.0	0.0	0.0	146.13793103448276	0.0	0.072082335	-0.11938446	1.014951015	2.45686	-0.48832	0.15259999999999999	3268067.0	1776544926.419406	0.0	1.0	-1.0	-1.0	-1.0	-1.0	-1.0	-1.0	-1.0	-1.0	0.0	marker	peace	Peace	21	0418
-67870.26	-54814.545	-104060.34	-18197.325	0.0	0.0	0.0	0.0	0.0	0.0	0.0	0.0	0.0	0.0	0.0	0.0	0.0	0.0	146.13793103448276	0.0	0.072082335	-0.11938446	1.014951015	2.45686	-0.48832	0.15259999999999999	3268068.0	1776544926.423547	0.0	1.0	-1.0	-1.0	-1.0	-1.0	-1.0	-1.0	-1.0	-1.0	0.0	marker	peace	Peace	21	0418
-67725.45	-54790.424999999996	-103939.69499999999	-18124.605	0.0	0.0	0.0	0.0	0.0	0.0	0.0	0.0	0.0	0.0	0.0	0.0	0.0	0.0	146.13793103448276	0.0	0.072082335	-0.11938446	1.014951015	2.45686	-0.48832	0.15259999999999999	3268069.0	1776544926.42357	0.0	1.0	-1.0	-1.0	-1.0	-1.0	-1.0	-1.0	-1.0	-1.0	0.0	marker	peace	Peace	21	0418
-67786.965	-54770.354999999996	-104019.075	-18152.055	0.0	0.0	0.0	0.0	0.0	0.0	0.0	0.0	0.0	0.0	0.0	0.0	0.0	0.0	146.13793103448276	0.0	0.066345045	-0.129821445	1.007138535	3.95234	-0.28994	-1.35814	3268070.0	1776544926.427372	0.0	1.0	-1.0	-1.0	-1.0	-1.0	-1.0	-1.0	-1.0	-1.0	0.0	marker	peace	Peace	21	0418
-67979.52	-54765.765	-104226.165	-18282.105	0.0	0.0	0.0	0.0	0.0	0.0	0.0	0.0	0.0	0.0	0.0	0.0	0.0	0.0	146.13793103448276	0.0	0.066345045	-0.129821445	1.007138535	3.95234	-0.28994	-1.35814	3268071.0	1776544926.427397	0.0	1.0	-1.0	-1.0	-1.0	-1.0	-1.0	-1.0	-1.0	-1.0	0.0	marker	peace	Peace	21	0418
-67878.18	-54762.345	-104135.04	-18199.755	0.0	0.0	0.0	0.0	0.0	0.0	0.0	0.0	0.0	0.0	0.0	0.0	0.0	0.0	146.13793103448276	0.0	0.066345045	-0.129821445	1.007138535	3.95234	-0.28994	-1.35814	3268072.0	1776544926.435208	0.0	1.0	-1.0	-1.0	-1.0	-1.0	-1.0	-1.0	-1.0	-1.0	0.0	marker	peace	Peace	21	0418
-67958.45999999999	-54757.979999999996	-104114.655	-18196.965	0.0	0.0	0.0	0.0	0.0	0.0	0.0	0.0	0.0	0.0	0.0	0.0	0.0	0.0	146.13793103448276	0.0	0.066345045	-0.129821445	1.007138535	3.95234	-0.28994	-1.35814	3268073.0	1776544926.435224	0.0	1.0	-1.0	-1.0	-1.0	-1.0	-1.0	-1.0	-1.0	-1.0	0.0	marker	peace	Peace	21	0418
-67937.94	-54750.015	-104187.51	-18326.475	0.0	0.0	0.0	0.0	0.0	0.0	0.0	0.0	0.0	0.0	0.0	0.0	0.0	0.0	146.13793103448276	0.0	0.066345045	-0.129821445	1.007138535	3.95234	-0.28994	-1.35814	3268074.0	1776544926.440326	0.0	1.0	-1.0	-1.0	-1.0	-1.0	-1.0	-1.0	-1.0	-1.0	0.0	marker	peace	Peace	21	0418
-67912.65	-54735.75	-104170.23	-18370.71	0.0	0.0	0.0	0.0	0.0	0.0	0.0	0.0	0.0	0.0	0.0	0.0	0.0	0.0	146.13793103448276	0.0	0.066345045	-0.129821445	1.007138535	3.95234	-0.28994	-1.35814	3268075.0	1776544926.440352	0.0	1.0	-1.0	-1.0	-1.0	-1.0	-1.0	-1.0	-1.0	-1.0	0.0	marker	peace	Peace	21	0418
-67870.53	-54714.284999999996	-104073.84	-18295.335	0.0	0.0	0.0	0.0	0.0	0.0	0.0	0.0	0.0	0.0	0.0	0.0	0.0	0.0	146.13793103448276	0.0	0.066345045	-0.129821445	1.007138535	3.95234	-0.28994	-1.35814	3268076.0	1776544926.443147	0.0	1.0	-1.0	-1.0	-1.0	-1.0	-1.0	-1.0	-1.0	-1.0	0.0	marker	peace	Peace	21	0418
-67831.155	-54703.665	-104060.385	-18226.755	0.0	0.0	0.0	0.0	0.0	0.0	0.0	0.0	0.0	0.0	0.0	0.0	0.0	0.0	146.13793103448276	0.0	0.066345045	-0.129821445	1.007138535	3.95234	-0.28994	-1.35814	3268077.0	1776544926.443165	0.0	1.0	-1.0	-1.0	-1.0	-1.0	-1.0	-1.0	-1.0	-1.0	0.0	marker	peace	Peace	21	0418
-67927.77	-54708.39	-104182.37999999999	-18262.17	0.0	0.0	0.0	0.0	0.0	0.0	0.0	0.0	0.0	0.0	0.0	0.0	0.0	0.0	146.13793103448276	0.0	0.066345045	-0.129821445	1.007138535	3.95234	-0.28994	-1.35814	3268078.0	1776544926.446794	0.0	1.0	-1.0	-1.0	-1.0	-1.0	-1.0	-1.0	-1.0	-1.0	0.0	marker	peace	Peace	21	0418
-67951.08	-54708.84	-104168.61	-18206.91	0.0	0.0	0.0	0.0	0.0	0.0	0.0	0.0	0.0	0.0	0.0	0.0	0.0	0.0	146.13793103448276	0.0	0.066345045	-0.129821445	1.007138535	3.95234	-0.28994	-1.35814	3268079.0	1776544926.446809	0.0	1.0	-1.0	-1.0	-1.0	-1.0	-1.0	-1.0	-1.0	-1.0	0.0	marker	peace	Peace	21	0418
-67837.095	-54707.31	-104098.545	-18197.145	0.0	0.0	0.0	0.0	0.0	0.0	0.0	0.0	0.0	0.0	0.0	0.0	0.0	0.0	146.13793103448276	0.0	0.06457503	-0.12426726	1.00622301	3.11304	-0.35097999999999996	-0.9156	3268080.0	1776544926.449447	0.0	1.0	-1.0	-1.0	-1.0	-1.0	-1.0	-1.0	-1.0	-1.0	0.0	marker	peace	Peace	21	0418
-67933.62	-54729.27	-104149.03499999999	-18311.309999999998	0.0	0.0	0.0	0.0	0.0	0.0	0.0	0.0	0.0	0.0	0.0	0.0	0.0	0.0	146.13793103448276	0.0	0.06457503	-0.12426726	1.00622301	3.11304	-0.35097999999999996	-0.9156	3268081.0	1776544926.449506	0.0	1.0	-1.0	-1.0	-1.0	-1.0	-1.0	-1.0	-1.0	-1.0	0.0	marker	peace	Peace	21	0418
-67972.77	-54743.939999999995	-104149.665	-18295.29	0.0	0.0	0.0	0.0	0.0	0.0	0.0	0.0	0.0	0.0	0.0	0.0	0.0	0.0	146.13793103448276	0.0	0.06457503	-0.12426726	1.00622301	3.11304	-0.35097999999999996	-0.9156	3268082.0	1776544926.452445	0.0	1.0	-1.0	-1.0	-1.0	-1.0	-1.0	-1.0	-1.0	-1.0	0.0	marker	peace	Peace	21	0418
-67914.09	-54743.579999999994	-104173.065	-18259.38	0.0	0.0	0.0	0.0	0.0	0.0	0.0	0.0	0.0	0.0	0.0	0.0	0.0	0.0	146.13793103448276	0.0	0.06457503	-0.12426726	1.00622301	3.11304	-0.35097999999999996	-0.9156	3268083.0	1776544926.452472	0.0	1.0	-1.0	-1.0	-1.0	-1.0	-1.0	-1.0	-1.0	-1.0	0.0	marker	peace	Peace	21	0418
-67886.505	-54734.715	-104207.985	-18258.434999999998	0.0	0.0	0.0	0.0	0.0	0.0	0.0	0.0	0.0	0.0	0.0	0.0	0.0	0.0	146.13793103448276	0.0	0.06457503	-0.12426726	1.00622301	3.11304	-0.35097999999999996	-0.9156	3268084.0	1776544926.45534	0.0	1.0	-1.0	-1.0	-1.0	-1.0	-1.0	-1.0	-1.0	-1.0	0.0	marker	peace	Peace	21	0418
-67845.015	-54721.305	-104125.455	-18240.165	0.0	0.0	0.0	0.0	0.0	0.0	0.0	0.0	0.0	0.0	0.0	0.0	0.0	0.0	146.13793103448276	0.0	0.06457503	-0.12426726	1.00622301	3.11304	-0.35097999999999996	-0.9156	3268085.0	1776544926.455357	0.0	1.0	-1.0	-1.0	-1.0	-1.0	-1.0	-1.0	-1.0	-1.0	0.0	marker	peace	Peace	21	0418
-67887.81	-54717.479999999996	-104160.59999999999	-18275.94	0.0	0.0	0.0	0.0	0.0	0.0	0.0	0.0	0.0	0.0	0.0	0.0	0.0	0.0	146.13793103448276	0.0	0.06457503	-0.12426726	1.00622301	3.11304	-0.35097999999999996	-0.9156	3268086.0	1776544926.459407	0.0	1.0	-1.0	-1.0	-1.0	-1.0	-1.0	-1.0	-1.0	-1.0	0.0	marker	peace	Peace	21	0418
-67995.675	-54731.744999999995	-104177.79	-18247.41	0.0	0.0	0.0	0.0	0.0	0.0	0.0	0.0	0.0	0.0	0.0	0.0	0.0	0.0	146.13793103448276	0.0	0.06457503	-0.12426726	1.00622301	3.11304	-0.35097999999999996	-0.9156	3268087.0	1776544926.459419	0.0	1.0	-1.0	-1.0	-1.0	-1.0	-1.0	-1.0	-1.0	-1.0	0.0	marker	peace	Peace	21	0418
-67984.155	-54757.034999999996	-104372.325	-18290.925	0.0	0.0	0.0	0.0	0.0	0.0	0.0	0.0	0.0	0.0	0.0	0.0	0.0	0.0	146.13793103448276	0.0	0.06457503	-0.12426726	1.00622301	3.11304	-0.35097999999999996	-0.9156	3268088.0	1776544926.463399	0.0	1.0	-1.0	-1.0	-1.0	-1.0	-1.0	-1.0	-1.0	-1.0	0.0	marker	peace	Peace	21	0418
-67910.44499999999	-54768.104999999996	-104264.45999999999	-18311.895	0.0	0.0	0.0	0.0	0.0	0.0	0.0	0.0	0.0	0.0	0.0	0.0	0.0	0.0	146.13793103448276	0.0	0.06457503	-0.12426726	1.00622301	3.11304	-0.35097999999999996	-0.9156	3268089.0	1776544926.463415	0.0	1.0	-1.0	-1.0	-1.0	-1.0	-1.0	-1.0	-1.0	-1.0	0.0	marker	peace	Peace	21	0418
-67886.81999999999	-54766.125	-103939.065	-18237.78	0.0	0.0	0.0	0.0	0.0	0.0	0.0	0.0	0.0	0.0	0.0	0.0	0.0	0.0	146.13793103448276	0.0	0.059509125	-0.1184079	1.0119603	2.12114	-0.30519999999999997	-0.04578	3268090.0	1776544926.472358	0.0	1.0	-1.0	-1.0	-1.0	-1.0	-1.0	-1.0	-1.0	-1.0	0.0	marker	peace	Peace	21	0418
-67894.65	-54777.104999999996	-104074.01999999999	-18177.84	0.0	0.0	0.0	0.0	0.0	0.0	0.0	0.0	0.0	0.0	0.0	0.0	0.0	0.0	146.13793103448276	0.0	0.059509125	-0.1184079	1.0119603	2.12114	-0.30519999999999997	-0.04578	3268091.0	1776544926.472374	0.0	1.0	-1.0	-1.0	-1.0	-1.0	-1.0	-1.0	-1.0	-1.0	0.0	marker	peace	Peace	21	0418
-67956.075	-54799.515	-104230.665	-18267.75	0.0	0.0	0.0	0.0	0.0	0.0	0.0	0.0	0.0	0.0	0.0	0.0	0.0	0.0	146.13793103448276	0.0	0.059509125	-0.1184079	1.0119603	2.12114	-0.30519999999999997	-0.04578	3268092.0	1776544926.566118	0.0	1.0	-1.0	-1.0	-1.0	-1.0	-1.0	-1.0	-1.0	-1.0	0.0	marker	peace	Peace	21	0418
-67991.985	-54805.77	-104240.51999999999	-18319.77	0.0	0.0	0.0	0.0	0.0	0.0	0.0	0.0	0.0	0.0	0.0	0.0	0.0	0.0	146.13793103448276	0.0	0.059509125	-0.1184079	1.0119603	2.12114	-0.30519999999999997	-0.04578	3268093.0	1776544926.566136	0.0	1.0	-1.0	-1.0	-1.0	-1.0	-1.0	-1.0	-1.0	-1.0	0.0	marker	peace	Peace	21	0418
-67856.58	-54777.06	-104121.405	-18209.88	0.0	0.0	0.0	0.0	0.0	0.0	0.0	0.0	0.0	0.0	0.0	0.0	0.0	0.0	146.13793103448276	0.0	0.059509125	-0.1184079	1.0119603	2.12114	-0.30519999999999997	-0.04578	3268094.0	1776544926.566225	0.0	1.0	-1.0	-1.0	-1.0	-1.0	-1.0	-1.0	-1.0	-1.0	0.0	marker	peace	Peace	21	0418
-67700.565	-54758.564999999995	-104018.53499999999	-18108.765	0.0	0.0	0.0	0.0	0.0	0.0	0.0	0.0	0.0	0.0	0.0	0.0	0.0	0.0	146.13793103448276	0.0	0.059509125	-0.1184079	1.0119603	2.12114	-0.30519999999999997	-0.04578	3268095.0	1776544926.566246	0.0	1.0	-1.0	-1.0	-1.0	-1.0	-1.0	-1.0	-1.0	-1.0	0.0	marker	peace	Peace	21	0418
-67907.47499999999	-54775.71	-104149.98	-18264.69	0.0	0.0	0.0	0.0	0.0	0.0	0.0	0.0	0.0	0.0	0.0	0.0	0.0	0.0	146.13793103448276	0.0	0.059509125	-0.1184079	1.0119603	2.12114	-0.30519999999999997	-0.04578	3268096.0	1776544926.566316	0.0	1.0	-1.0	-1.0	-1.0	-1.0	-1.0	-1.0	-1.0	-1.0	0.0	marker	peace	Peace	21	0418
-67953.33	-54788.895	-104133.105	-18268.335	0.0	0.0	0.0	0.0	0.0	0.0	0.0	0.0	0.0	0.0	0.0	0.0	0.0	0.0	146.13793103448276	0.0	0.059509125	-0.1184079	1.0119603	2.12114	-0.30519999999999997	-0.04578	3268097.0	1776544926.566324	0.0	1.0	-1.0	-1.0	-1.0	-1.0	-1.0	-1.0	-1.0	-1.0	0.0	marker	peace	Peace	21	0418
-67979.88	-54788.13	-104163.885	-18312.48	0.0	0.0	0.0	0.0	0.0	0.0	0.0	0.0	0.0	0.0	0.0	0.0	0.0	0.0	146.13793103448276	0.0	0.059509125	-0.1184079	1.0119603	2.12114	-0.30519999999999997	-0.04578	3268098.0	1776544926.566336	0.0	1.0	-1.0	-1.0	-1.0	-1.0	-1.0	-1.0	-1.0	-1.0	0.0	marker	peace	Peace	21	0418
-67968.135	-54783.314999999995	-104168.87999999999	-18301.41	0.0	0.0	0.0	0.0	0.0	0.0	0.0	0.0	0.0	0.0	0.0	0.0	0.0	0.0	146.13793103448276	0.0	0.059509125	-0.1184079	1.0119603	2.12114	-0.30519999999999997	-0.04578	3268099.0	1776544926.566344	0.0	1.0	-1.0	-1.0	-1.0	-1.0	-1.0	-1.0	-1.0	-1.0	0.0	marker	peace	Peace	21	0418
-67848.435	-54774.99	-104097.19499999999	-18189.809999999998	0.0	0.0	0.0	0.0	0.0	0.0	0.0	0.0	0.0	0.0	0.0	0.0	0.0	0.0	146.13793103448276	0.0	0.063171225	-0.11633271	1.01379135	1.9380199999999999	-0.41202	0.25942	3268100.0	1776544926.566354	0.0	1.0	-1.0	-1.0	-1.0	-1.0	-1.0	-1.0	-1.0	-1.0	0.0	marker	peace	Peace	21	0418
-67847.895	-54758.924999999996	-104128.245	-18198.989999999998	0.0	0.0	0.0	0.0	0.0	0.0	0.0	0.0	0.0	0.0	0.0	0.0	0.0	0.0	146.13793103448276	0.0	0.063171225	-0.11633271	1.01379135	1.9380199999999999	-0.41202	0.25942	3268101.0	1776544926.566375	0.0	1.0	-1.0	-1.0	-1.0	-1.0	-1.0	-1.0	-1.0	-1.0	0.0	marker	peace	Peace	21	0418
-68010.03	-54747.854999999996	-104216.12999999999	-18326.024999999998	0.0	0.0	0.0	0.0	0.0	0.0	0.0	0.0	0.0	0.0	0.0	0.0	0.0	0.0	146.13793103448276	0.0	0.063171225	-0.11633271	1.01379135	1.9380199999999999	-0.41202	0.25942	3268102.0	1776544926.566386	0.0	1.0	-1.0	-1.0	-1.0	-1.0	-1.0	-1.0	-1.0	-1.0	0.0	marker	peace	Peace	21	0418
-68037.345	-54741.329999999994	-104165.19	-18319.905	0.0	0.0	0.0	0.0	0.0	0.0	0.0	0.0	0.0	0.0	0.0	0.0	0.0	0.0	146.13793103448276	0.0	0.063171225	-0.11633271	1.01379135	1.9380199999999999	-0.41202	0.25942	3268103.0	1776544926.566393	0.0	1.0	-1.0	-1.0	-1.0	-1.0	-1.0	-1.0	-1.0	-1.0	0.0	marker	peace	Peace	21	0418
-67955.805	-54743.265	-104118.705	-18211.05	0.0	0.0	0.0	0.0	0.0	0.0	0.0	0.0	0.0	0.0	0.0	0.0	0.0	0.0	146.13793103448276	0.0	0.063171225	-0.11633271	1.01379135	1.9380199999999999	-0.41202	0.25942	3268104.0	1776544926.566404	0.0	1.0	-1.0	-1.0	-1.0	-1.0	-1.0	-1.0	-1.0	-1.0	0.0	marker	peace	Peace	21	0418
-67949.86499999999	-54752.579999999994	-104193.62999999999	-18238.815	0.0	0.0	0.0	0.0	0.0	0.0	0.0	0.0	0.0	0.0	0.0	0.0	0.0	0.0	146.13793103448276	0.0	0.063171225	-0.11633271	1.01379135	1.9380199999999999	-0.41202	0.25942	3268105.0	1776544926.566411	0.0	1.0	-1.0	-1.0	-1.0	-1.0	-1.0	-1.0	-1.0	-1.0	0.0	marker	peace	Peace	21	0418
-67882.995	-54752.22	-104153.58	-18272.204999999998	0.0	0.0	0.0	0.0	0.0	0.0	0.0	0.0	0.0	0.0	0.0	0.0	0.0	0.0	146.13793103448276	0.0	0.063171225	-0.11633271	1.01379135	1.9380199999999999	-0.41202	0.25942	3268106.0	1776544926.566421	0.0	1.0	-1.0	-1.0	-1.0	-1.0	-1.0	-1.0	-1.0	-1.0	0.0	marker	peace	Peace	21	0418
-67865.895	-54759.509999999995	-104141.385	-18244.17	0.0	0.0	0.0	0.0	0.0	0.0	0.0	0.0	0.0	0.0	0.0	0.0	0.0	0.0	146.13793103448276	0.0	0.063171225	-0.11633271	1.01379135	1.9380199999999999	-0.41202	0.25942	3268107.0	1776544926.566428	0.0	1.0	-1.0	-1.0	-1.0	-1.0	-1.0	-1.0	-1.0	-1.0	0.0	marker	peace	Peace	21	0418
-67792.31999999999	-54760.994999999995	-104084.19	-18167.04	0.0	0.0	0.0	0.0	0.0	0.0	0.0	0.0	0.0	0.0	0.0	0.0	0.0	0.0	146.13793103448276	0.0	0.063171225	-0.11633271	1.01379135	1.9380199999999999	-0.41202	0.25942	3268108.0	1776544926.566438	0.0	1.0	-1.0	-1.0	-1.0	-1.0	-1.0	-1.0	-1.0	-1.0	0.0	marker	peace	Peace	21	0418
-67918.36499999999	-54762.165	-104178.64499999999	-18253.98	0.0	0.0	0.0	0.0	0.0	0.0	0.0	0.0	0.0	0.0	0.0	0.0	0.0	0.0	146.13793103448276	0.0	0.063171225	-0.11633271	1.01379135	1.9380199999999999	-0.41202	0.25942	3268109.0	1776544926.566445	0.0	1.0	-1.0	-1.0	-1.0	-1.0	-1.0	-1.0	-1.0	-1.0	0.0	marker	peace	Peace	21	0418
-68031.855	-54758.52	-104265.045	-18309.555	0.0	0.0	0.0	0.0	0.0	0.0	0.0	0.0	0.0	0.0	0.0	0.0	0.0	0.0	146.13793103448276	0.0	0.07055646	-0.121642755	1.008237165	1.9990599999999998	-0.24416	-0.2289	3268110.0	1776544926.566454	0.0	1.0	-1.0	-1.0	-1.0	-1.0	-1.0	-1.0	-1.0	-1.0	0.0	marker	peace	Peace	21	0418
-67950.98999999999	-54739.799999999996	-104191.11	-18271.844999999998	0.0	0.0	0.0	0.0	0.0	0.0	0.0	0.0	0.0	0.0	0.0	0.0	0.0	0.0	146.13793103448276	0.0	0.07055646	-0.121642755	1.008237165	1.9990599999999998	-0.24416	-0.2289	3268111.0	1776544926.566461	0.0	1.0	-1.0	-1.0	-1.0	-1.0	-1.0	-1.0	-1.0	-1.0	0.0	marker	peace	Peace	21	0418
-67900.185	-54735.795	-104110.965	-18243.27	0.0	0.0	0.0	0.0	0.0	0.0	0.0	0.0	0.0	0.0	0.0	0.0	0.0	0.0	146.13793103448276	0.0	0.07055646	-0.121642755	1.008237165	1.9990599999999998	-0.24416	-0.2289	3268112.0	1776544926.56647	0.0	1.0	-1.0	-1.0	-1.0	-1.0	-1.0	-1.0	-1.0	-1.0	0.0	marker	peace	Peace	21	0418
-67845.645	-54734.13	-104072.58	-18201.285	0.0	0.0	0.0	0.0	0.0	0.0	0.0	0.0	0.0	0.0	0.0	0.0	0.0	0.0	146.13793103448276	0.0	0.07055646	-0.121642755	1.008237165	1.9990599999999998	-0.24416	-0.2289	3268113.0	1776544926.566478	0.0	1.0	-1.0	-1.0	-1.0	-1.0	-1.0	-1.0	-1.0	-1.0	0.0	marker	peace	Peace	21	0418
-67976.91	-54759.104999999996	-104211.72	-18305.37	0.0	0.0	0.0	0.0	0.0	0.0	0.0	0.0	0.0	0.0	0.0	0.0	0.0	0.0	146.13793103448276	0.0	0.07055646	-0.121642755	1.008237165	1.9990599999999998	-0.24416	-0.2289	3268114.0	1776544926.566487	0.0	1.0	-1.0	-1.0	-1.0	-1.0	-1.0	-1.0	-1.0	-1.0	0.0	marker	peace	Peace	21	0418
-67969.98	-54763.38	-104195.79	-18316.53	0.0	0.0	0.0	0.0	0.0	0.0	0.0	0.0	0.0	0.0	0.0	0.0	0.0	0.0	146.13793103448276	0.0	0.07055646	-0.121642755	1.008237165	1.9990599999999998	-0.24416	-0.2289	3268115.0	1776544926.566494	0.0	1.0	-1.0	-1.0	-1.0	-1.0	-1.0	-1.0	-1.0	-1.0	0.0	marker	peace	Peace	21	0418
-67923.58499999999	-54759.24	-104116.995	-18273.105	0.0	0.0	0.0	0.0	0.0	0.0	0.0	0.0	0.0	0.0	0.0	0.0	0.0	0.0	146.13793103448276	0.0	0.07055646	-0.121642755	1.008237165	1.9990599999999998	-0.24416	-0.2289	3268116.0	1776544926.566504	0.0	1.0	-1.0	-1.0	-1.0	-1.0	-1.0	-1.0	-1.0	-1.0	0.0	marker	peace	Peace	21	0418
-67703.4	-54742.095	-103934.83499999999	-18094.454999999998	0.0	0.0	0.0	0.0	0.0	0.0	0.0	0.0	0.0	0.0	0.0	0.0	0.0	0.0	146.13793103448276	0.0	0.07055646	-0.121642755	1.008237165	1.9990599999999998	-0.24416	-0.2289	3268117.0	1776544926.566511	0.0	1.0	-1.0	-1.0	-1.0	-1.0	-1.0	-1.0	-1.0	-1.0	0.0	marker	peace	Peace	21	0418
-67840.69499999999	-54756.0	-104126.12999999999	-18207.675	0.0	0.0	0.0	0.0	0.0	0.0	0.0	0.0	0.0	0.0	0.0	0.0	0.0	0.0	146.13793103448276	0.0	0.07055646	-0.121642755	1.008237165	1.9990599999999998	-0.24416	-0.2289	3268118.0	1776544926.566521	0.0	1.0	-1.0	-1.0	-1.0	-1.0	-1.0	-1.0	-1.0	-1.0	0.0	marker	peace	Peace	21	0418
-67948.425	-54774.0	-104204.565	-18261.765	0.0	0.0	0.0	0.0	0.0	0.0	0.0	0.0	0.0	0.0	0.0	0.0	0.0	0.0	146.13793103448276	0.0	0.07055646	-0.121642755	1.008237165	1.9990599999999998	-0.24416	-0.2289	3268119.0	1776544926.566529	0.0	1.0	-1.0	-1.0	-1.0	-1.0	-1.0	-1.0	-1.0	-1.0	0.0	marker	peace	Peace	21	0418
-67865.44499999999	-54766.17	-104110.47	-18208.485	0.0	0.0	0.0	0.0	0.0	0.0	0.0	0.0	0.0	0.0	0.0	0.0	0.0	0.0	146.13793103448276	0.0	0.068664375	-0.12463347	1.00622301	2.4110799999999997	0.24416	-0.97664	3268120.0	1776544926.566539	0.0	1.0	-1.0	-1.0	-1.0	-1.0	-1.0	-1.0	-1.0	-1.0	0.0	marker	peace	Peace	21	0418
-67962.33	-54762.39	-104195.87999999999	-18306.045	0.0	0.0	0.0	0.0	0.0	0.0	0.0	0.0	0.0	0.0	0.0	0.0	0.0	0.0	146.13793103448276	0.0	0.068664375	-0.12463347	1.00622301	2.4110799999999997	0.24416	-0.97664	3268121.0	1776544926.566546	0.0	1.0	-1.0	-1.0	-1.0	-1.0	-1.0	-1.0	-1.0	-1.0	0.0	marker	peace	Peace	21	0418
-68027.67	-54761.625	-104230.305	-18313.38	0.0	0.0	0.0	0.0	0.0	0.0	0.0	0.0	0.0	0.0	0.0	0.0	0.0	0.0	146.13793103448276	0.0	0.068664375	-0.12463347	1.00622301	2.4110799999999997	0.24416	-0.97664	3268122.0	1776544926.566556	0.0	1.0	-1.0	-1.0	-1.0	-1.0	-1.0	-1.0	-1.0	-1.0	0.0	marker	peace	Peace	21	0418
-67946.44499999999	-54766.17	-104168.06999999999	-18269.954999999998	0.0	0.0	0.0	0.0	0.0	0.0	0.0	0.0	0.0	0.0	0.0	0.0	0.0	0.0	146.13793103448276	0.0	0.068664375	-0.12463347	1.00622301	2.4110799999999997	0.24416	-0.97664	3268123.0	1776544926.566563	0.0	1.0	-1.0	-1.0	-1.0	-1.0	-1.0	-1.0	-1.0	-1.0	0.0	marker	peace	Peace	21	0418
-67879.035	-54770.625	-104112.135	-18233.145	0.0	0.0	0.0	0.0	0.0	0.0	0.0	0.0	0.0	0.0	0.0	0.0	0.0	0.0	146.13793103448276	0.0	0.068664375	-0.12463347	1.00622301	2.4110799999999997	0.24416	-0.97664	3268124.0	1776544926.566572	0.0	1.0	-1.0	-1.0	-1.0	-1.0	-1.0	-1.0	-1.0	-1.0	0.0	marker	peace	Peace	21	0418
-67844.43	-54762.299999999996	-104084.55	-18235.62	0.0	0.0	0.0	0.0	0.0	0.0	0.0	0.0	0.0	0.0	0.0	0.0	0.0	0.0	146.13793103448276	0.0	0.068664375	-0.12463347	1.00622301	2.4110799999999997	0.24416	-0.97664	3268125.0	1776544926.56658	0.0	1.0	-1.0	-1.0	-1.0	-1.0	-1.0	-1.0	-1.0	-1.0	0.0	marker	peace	Peace	21	0418
-67928.715	-54761.759999999995	-104148.855	-18276.3	0.0	0.0	0.0	0.0	0.0	0.0	0.0	0.0	0.0	0.0	0.0	0.0	0.0	0.0	146.13793103448276	0.0	0.068664375	-0.12463347	1.00622301	2.4110799999999997	0.24416	-0.97664	3268126.0	1776544926.56659	0.0	1.0	-1.0	-1.0	-1.0	-1.0	-1.0	-1.0	-1.0	-1.0	0.0	marker	peace	Peace	21	0418
-67891.23	-54756.72	-104079.105	-18254.385	0.0	0.0	0.0	0.0	0.0	0.0	0.0	0.0	0.0	0.0	0.0	0.0	0.0	0.0	146.13793103448276	0.0	0.068664375	-0.12463347	1.00622301	2.4110799999999997	0.24416	-0.97664	3268127.0	1776544926.566597	0.0	1.0	-1.0	-1.0	-1.0	-1.0	-1.0	-1.0	-1.0	-1.0	0.0	marker	peace	Peace	21	0418
-67916.88	-54727.784999999996	-104068.75499999999	-18222.39	0.0	0.0	0.0	0.0	0.0	0.0	0.0	0.0	0.0	0.0	0.0	0.0	0.0	0.0	146.13793103448276	0.0	0.068664375	-0.12463347	1.00622301	2.4110799999999997	0.24416	-0.97664	3268128.0	1776544926.566607	0.0	1.0	-1.0	-1.0	-1.0	-1.0	-1.0	-1.0	-1.0	-1.0	0.0	marker	peace	Peace	21	0418
-67917.915	-54666.09	-104144.985	-18247.454999999998	0.0	0.0	0.0	0.0	0.0	0.0	0.0	0.0	0.0	0.0	0.0	0.0	0.0	0.0	146.13793103448276	0.0	0.068664375	-0.12463347	1.00622301	2.4110799999999997	0.24416	-0.97664	3268129.0	1776544926.566614	0.0	1.0	-1.0	-1.0	-1.0	-1.0	-1.0	-1.0	-1.0	-1.0	0.0	marker	peace	Peace	21	0418
-67847.265	-54670.229999999996	-104031.54	-18251.82	0.0	0.0	0.0	0.0	0.0	0.0	0.0	0.0	0.0	0.0	0.0	0.0	0.0	0.0	146.13793103448276	0.0	0.064880205	-0.133483545	1.006894395	3.29616	0.5341	-1.09872	3268130.0	1776544926.566623	0.0	1.0	-1.0	-1.0	-1.0	-1.0	-1.0	-1.0	-1.0	-1.0	0.0	marker	peace	Peace	21	0418
-67973.715	-54691.2	-104144.67	-18245.16	0.0	0.0	0.0	0.0	0.0	0.0	0.0	0.0	0.0	0.0	0.0	0.0	0.0	0.0	146.13793103448276	0.0	0.064880205	-0.133483545	1.006894395	3.29616	0.5341	-1.09872	3268131.0	1776544926.56663	0.0	1.0	-1.0	-1.0	-1.0	-1.0	-1.0	-1.0	-1.0	-1.0	0.0	marker	peace	Peace	21	0418
-67858.47	-54689.174999999996	-104145.84	-18144.045	0.0	0.0	0.0	0.0	0.0	0.0	0.0	0.0	0.0	0.0	0.0	0.0	0.0	0.0	146.13793103448276	0.0	0.064880205	-0.133483545	1.006894395	3.29616	0.5341	-1.09872	3268132.0	1776544926.566639	0.0	1.0	-1.0	-1.0	-1.0	-1.0	-1.0	-1.0	-1.0	-1.0	0.0	marker	peace	Peace	21	0418
-67917.735	-54687.96	-104282.055	-18283.005	0.0	0.0	0.0	0.0	0.0	0.0	0.0	0.0	0.0	0.0	0.0	0.0	0.0	0.0	146.13793103448276	0.0	0.064880205	-0.133483545	1.006894395	3.29616	0.5341	-1.09872	3268133.0	1776544926.566647	0.0	1.0	-1.0	-1.0	-1.0	-1.0	-1.0	-1.0	-1.0	-1.0	0.0	marker	peace	Peace	21	0418
-67957.245	-54679.275	-104303.34	-18328.635	0.0	0.0	0.0	0.0	0.0	0.0	0.0	0.0	0.0	0.0	0.0	0.0	0.0	0.0	146.13793103448276	0.0	0.064880205	-0.133483545	1.006894395	3.29616	0.5341	-1.09872	3268134.0	1776544926.566655	0.0	1.0	-1.0	-1.0	-1.0	-1.0	-1.0	-1.0	-1.0	-1.0	0.0	marker	peace	Peace	21	0418
-67927.995	-54669.915	-104231.79	-18315.54	0.0	0.0	0.0	0.0	0.0	0.0	0.0	0.0	0.0	0.0	0.0	0.0	0.0	0.0	146.13793103448276	0.0	0.064880205	-0.133483545	1.006894395	3.29616	0.5341	-1.09872	3268135.0	1776544926.566663	0.0	1.0	-1.0	-1.0	-1.0	-1.0	-1.0	-1.0	-1.0	-1.0	0.0	marker	peace	Peace	21	0418
-67970.34	-54664.11	-104207.12999999999	-18276.12	0.0	0.0	0.0	0.0	0.0	0.0	0.0	0.0	0.0	0.0	0.0	0.0	0.0	0.0	146.13793103448276	0.0	0.064880205	-0.133483545	1.006894395	3.29616	0.5341	-1.09872	3268136.0	1776544926.566671	0.0	1.0	-1.0	-1.0	-1.0	-1.0	-1.0	-1.0	-1.0	-1.0	0.0	marker	peace	Peace	21	0418
-67897.08	-54665.145	-104142.915	-18229.59	0.0	0.0	0.0	0.0	0.0	0.0	0.0	0.0	0.0	0.0	0.0	0.0	0.0	0.0	146.13793103448276	0.0	0.064880205	-0.133483545	1.006894395	3.29616	0.5341	-1.09872	3268137.0	1776544926.566679	0.0	1.0	-1.0	-1.0	-1.0	-1.0	-1.0	-1.0	-1.0	-1.0	0.0	marker	peace	Peace	21	0418
-67881.51	-54666.225	-104149.62	-18273.645	0.0	0.0	0.0	0.0	0.0	0.0	0.0	0.0	0.0	0.0	0.0	0.0	0.0	0.0	146.13793103448276	0.0	0.064880205	-0.133483545	1.006894395	3.29616	0.5341	-1.09872	3268138.0	1776544926.566687	0.0	1.0	-1.0	-1.0	-1.0	-1.0	-1.0	-1.0	-1.0	-1.0	0.0	marker	peace	Peace	21	0418
-67903.83	-54672.119999999995	-104197.05	-18266.625	0.0	0.0	0.0	0.0	0.0	0.0	0.0	0.0	0.0	0.0	0.0	0.0	0.0	0.0	146.13793103448276	0.0	0.064880205	-0.133483545	1.006894395	3.29616	0.5341	-1.09872	3268139.0	1776544926.566695	0.0	1.0	-1.0	-1.0	-1.0	-1.0	-1.0	-1.0	-1.0	-1.0	0.0	marker	peace	Peace	21	0418
-67876.83	-54665.189999999995	-104123.11499999999	-18215.864999999998	0.0	0.0	0.0	0.0	0.0	0.0	0.0	0.0	0.0	0.0	0.0	0.0	0.0	0.0	146.13793103448276	0.0	0.0561522	-0.12683073	1.02514386	4.852679999999999	-1.11398	-1.2055399999999998	3268140.0	1776544926.56772	0.0	1.0	-1.0	-1.0	-1.0	-1.0	-1.0	-1.0	-1.0	-1.0	0.0	marker	peace	Peace	21	0418
-67890.15	-54643.95	-104050.89	-18206.73	0.0	0.0	0.0	0.0	0.0	0.0	0.0	0.0	0.0	0.0	0.0	0.0	0.0	0.0	146.13793103448276	0.0	0.0561522	-0.12683073	1.02514386	4.852679999999999	-1.11398	-1.2055399999999998	3268141.0	1776544926.567733	0.0	1.0	-1.0	-1.0	-1.0	-1.0	-1.0	-1.0	-1.0	-1.0	0.0	marker	peace	Peace	21	0418
-67948.69499999999	-54643.229999999996	-104150.655	-18265.77	0.0	0.0	0.0	0.0	0.0	0.0	0.0	0.0	0.0	0.0	0.0	0.0	0.0	0.0	146.13793103448276	0.0	0.0561522	-0.12683073	1.02514386	4.852679999999999	-1.11398	-1.2055399999999998	3268142.0	1776544926.571672	0.0	1.0	-1.0	-1.0	-1.0	-1.0	-1.0	-1.0	-1.0	-1.0	0.0	marker	peace	Peace	21	0418
-67945.31999999999	-54641.07	-104187.51	-18251.19	0.0	0.0	0.0	0.0	0.0	0.0	0.0	0.0	0.0	0.0	0.0	0.0	0.0	0.0	146.13793103448276	0.0	0.0561522	-0.12683073	1.02514386	4.852679999999999	-1.11398	-1.2055399999999998	3268143.0	1776544926.571681	0.0	1.0	-1.0	-1.0	-1.0	-1.0	-1.0	-1.0	-1.0	-1.0	0.0	marker	peace	Peace	21	0418
-67834.89	-54632.52	-104103.0	-18183.96	0.0	0.0	0.0	0.0	0.0	0.0	0.0	0.0	0.0	0.0	0.0	0.0	0.0	0.0	146.13793103448276	0.0	0.0561522	-0.12683073	1.02514386	4.852679999999999	-1.11398	-1.2055399999999998	3268144.0	1776544926.575783	0.0	1.0	-1.0	-1.0	-1.0	-1.0	-1.0	-1.0	-1.0	-1.0	0.0	marker	peace	Peace	21	0418
-67707.22499999999	-54624.689999999995	-104023.17	-18124.155	0.0	0.0	0.0	0.0	0.0	0.0	0.0	0.0	0.0	0.0	0.0	0.0	0.0	0.0	146.13793103448276	0.0	0.0561522	-0.12683073	1.02514386	4.852679999999999	-1.11398	-1.2055399999999998	3268145.0	1776544926.575792	0.0	1.0	-1.0	-1.0	-1.0	-1.0	-1.0	-1.0	-1.0	-1.0	0.0	marker	peace	Peace	21	0418
-67998.33	-54646.244999999995	-104204.565	-18283.905	0.0	0.0	0.0	0.0	0.0	0.0	0.0	0.0	0.0	0.0	0.0	0.0	0.0	0.0	146.13793103448276	0.0	0.0561522	-0.12683073	1.02514386	4.852679999999999	-1.11398	-1.2055399999999998	3268146.0	1776544926.579901	0.0	1.0	-1.0	-1.0	-1.0	-1.0	-1.0	-1.0	-1.0	-1.0	0.0	marker	peace	Peace	21	0418
-68067.765	-54658.935	-104254.11	-18336.239999999998	0.0	0.0	0.0	0.0	0.0	0.0	0.0	0.0	0.0	0.0	0.0	0.0	0.0	0.0	146.13793103448276	0.0	0.0561522	-0.12683073	1.02514386	4.852679999999999	-1.11398	-1.2055399999999998	3268147.0	1776544926.57991	0.0	1.0	-1.0	-1.0	-1.0	-1.0	-1.0	-1.0	-1.0	-1.0	0.0	marker	peace	Peace	21	0418
-67897.665	-54644.49	-104159.06999999999	-18263.34	0.0	0.0	0.0	0.0	0.0	0.0	0.0	0.0	0.0	0.0	0.0	0.0	0.0	0.0	146.13793103448276	0.0	0.0561522	-0.12683073	1.02514386	4.852679999999999	-1.11398	-1.2055399999999998	3268148.0	1776544926.583783	0.0	1.0	-1.0	-1.0	-1.0	-1.0	-1.0	-1.0	-1.0	-1.0	0.0	marker	peace	Peace	21	0418
-67964.94	-54644.13	-104218.155	-18323.64	0.0	0.0	0.0	0.0	0.0	0.0	0.0	0.0	0.0	0.0	0.0	0.0	0.0	0.0	146.13793103448276	0.0	0.0561522	-0.12683073	1.02514386	4.852679999999999	-1.11398	-1.2055399999999998	3268149.0	1776544926.583789	0.0	1.0	-1.0	-1.0	-1.0	-1.0	-1.0	-1.0	-1.0	-1.0	0.0	marker	peace	Peace	21	0418
-67975.73999999999	-54644.13	-104231.06999999999	-18335.969999999998	0.0	0.0	0.0	0.0	0.0	0.0	0.0	0.0	0.0	0.0	0.0	0.0	0.0	0.0	146.13793103448276	0.0	0.059020845	-0.11254854	1.0168431	2.7010199999999998	-0.8087799999999999	-0.6867	3268150.0	1776544926.587863	0.0	1.0	-1.0	-1.0	-1.0	-1.0	-1.0	-1.0	-1.0	-1.0	0.0	marker	peace	Peace	21	0418
-67949.55	-54636.75	-104214.23999999999	-18305.91	0.0	0.0	0.0	0.0	0.0	0.0	0.0	0.0	0.0	0.0	0.0	0.0	0.0	0.0	146.13793103448276	0.0	0.059020845	-0.11254854	1.0168431	2.7010199999999998	-0.8087799999999999	-0.6867	3268151.0	1776544926.587871	0.0	1.0	-1.0	-1.0	-1.0	-1.0	-1.0	-1.0	-1.0	-1.0	0.0	marker	peace	Peace	21	0418
-67944.465	-54621.27	-104175.495	-18279.855	0.0	0.0	0.0	0.0	0.0	0.0	0.0	0.0	0.0	0.0	0.0	0.0	0.0	0.0	146.13793103448276	0.0	0.059020845	-0.11254854	1.0168431	2.7010199999999998	-0.8087799999999999	-0.6867	3268152.0	1776544926.591644	0.0	1.0	-1.0	-1.0	-1.0	-1.0	-1.0	-1.0	-1.0	-1.0	0.0	marker	peace	Peace	21	0418
-67931.325	-54620.549999999996	-104136.03	-18263.565	0.0	0.0	0.0	0.0	0.0	0.0	0.0	0.0	0.0	0.0	0.0	0.0	0.0	0.0	146.13793103448276	0.0	0.059020845	-0.11254854	1.0168431	2.7010199999999998	-0.8087799999999999	-0.6867	3268153.0	1776544926.591649	0.0	1.0	-1.0	-1.0	-1.0	-1.0	-1.0	-1.0	-1.0	-1.0	0.0	marker	peace	Peace	21	0418
-67676.58	-54604.845	-103909.095	-18026.954999999998	0.0	0.0	0.0	0.0	0.0	0.0	0.0	0.0	0.0	0.0	0.0	0.0	0.0	0.0	146.13793103448276	0.0	0.059020845	-0.11254854	1.0168431	2.7010199999999998	-0.8087799999999999	-0.6867	3268154.0	1776544926.600921	0.0	1.0	-1.0	-1.0	-1.0	-1.0	-1.0	-1.0	-1.0	-1.0	0.0	marker	peace	Peace	21	0418
-67624.965	-54598.725	-103866.25499999999	-18001.8	0.0	0.0	0.0	0.0	0.0	0.0	0.0	0.0	0.0	0.0	0.0	0.0	0.0	0.0	146.13793103448276	0.0	0.059020845	-0.11254854	1.0168431	2.7010199999999998	-0.8087799999999999	-0.6867	3268155.0	1776544926.600925	0.0	1.0	-1.0	-1.0	-1.0	-1.0	-1.0	-1.0	-1.0	-1.0	0.0	marker	peace	Peace	21	0418
-68075.055	-54630.314999999995	-104291.50499999999	-18391.95	0.0	0.0	0.0	0.0	0.0	0.0	0.0	0.0	0.0	0.0	0.0	0.0	0.0	0.0	146.13793103448276	0.0	0.059020845	-0.11254854	1.0168431	2.7010199999999998	-0.8087799999999999	-0.6867	3268156.0	1776544926.60093	0.0	1.0	-1.0	-1.0	-1.0	-1.0	-1.0	-1.0	-1.0	-1.0	0.0	marker	peace	Peace	21	0418
-68077.395	-54628.65	-104327.055	-18399.285	0.0	0.0	0.0	0.0	0.0	0.0	0.0	0.0	0.0	0.0	0.0	0.0	0.0	0.0	146.13793103448276	0.0	0.059020845	-0.11254854	1.0168431	2.7010199999999998	-0.8087799999999999	-0.6867	3268157.0	1776544926.600933	0.0	1.0	-1.0	-1.0	-1.0	-1.0	-1.0	-1.0	-1.0	-1.0	0.0	marker	peace	Peace	21	0418
-67979.43	-54617.715	-104271.65999999999	-18328.364999999998	0.0	0.0	0.0	0.0	0.0	0.0	0.0	0.0	0.0	0.0	0.0	0.0	0.0	0.0	146.13793103448276	0.0	0.059020845	-0.11254854	1.0168431	2.7010199999999998	-0.8087799999999999	-0.6867	3268158.0	1776544926.603873	0.0	1.0	-1.0	-1.0	-1.0	-1.0	-1.0	-1.0	-1.0	-1.0	0.0	marker	peace	Peace	21	0418
-67891.905	-54604.079999999994	-104177.79	-18257.355	0.0	0.0	0.0	0.0	0.0	0.0	0.0	0.0	0.0	0.0	0.0	0.0	0.0	0.0	146.13793103448276	0.0	0.059020845	-0.11254854	1.0168431	2.7010199999999998	-0.8087799999999999	-0.6867	3268159.0	1776544926.603878	0.0	1.0	-1.0	-1.0	-1.0	-1.0	-1.0	-1.0	-1.0	-1.0	0.0	marker	peace	Peace	21	0418
-67865.715	-54594.54	-104138.235	-18230.985	0.0	0.0	0.0	0.0	0.0	0.0	0.0	0.0	0.0	0.0	0.0	0.0	0.0	0.0	146.13793103448276	0.0	0.08117655	-0.115173045	0.9987157050000001	0.36624	0.82404	0.41202	3268160.0	1776544926.701609	0.0	1.0	-1.0	-1.0	-1.0	-1.0	-1.0	-1.0	-1.0	-1.0	0.0	marker	peace	Peace	21	0418
-67960.845	-54592.29	-104219.81999999999	-18311.219999999998	0.0	0.0	0.0	0.0	0.0	0.0	0.0	0.0	0.0	0.0	0.0	0.0	0.0	0.0	146.13793103448276	0.0	0.08117655	-0.115173045	0.9987157050000001	0.36624	0.82404	0.41202	3268161.0	1776544926.701619	0.0	1.0	-1.0	-1.0	-1.0	-1.0	-1.0	-1.0	-1.0	-1.0	0.0	marker	peace	Peace	21	0418
-67896.94499999999	-54581.085	-104169.33	-18277.92	0.0	0.0	0.0	0.0	0.0	0.0	0.0	0.0	0.0	0.0	0.0	0.0	0.0	0.0	146.13793103448276	0.0	0.08117655	-0.115173045	0.9987157050000001	0.36624	0.82404	0.41202	3268162.0	1776544926.701625	0.0	1.0	-1.0	-1.0	-1.0	-1.0	-1.0	-1.0	-1.0	-1.0	0.0	marker	peace	Peace	21	0418
-67903.56	-54576.945	-104122.62	-18246.149999999998	0.0	0.0	0.0	0.0	0.0	0.0	0.0	0.0	0.0	0.0	0.0	0.0	0.0	0.0	146.13793103448276	0.0	0.08117655	-0.115173045	0.9987157050000001	0.36624	0.82404	0.41202	3268163.0	1776544926.701628	0.0	1.0	-1.0	-1.0	-1.0	-1.0	-1.0	-1.0	-1.0	-1.0	0.0	marker	peace	Peace	21	0418
-67985.775	-54587.88	-104178.105	-18295.469999999998	0.0	0.0	0.0	0.0	0.0	0.0	0.0	0.0	0.0	0.0	0.0	0.0	0.0	0.0	146.13793103448276	0.0	0.08117655	-0.115173045	0.9987157050000001	0.36624	0.82404	0.41202	3268164.0	1776544926.701633	0.0	1.0	-1.0	-1.0	-1.0	-1.0	-1.0	-1.0	-1.0	-1.0	0.0	marker	peace	Peace	21	0418
-67820.31	-54589.229999999996	-104048.73	-18172.53	0.0	0.0	0.0	0.0	0.0	0.0	0.0	0.0	0.0	0.0	0.0	0.0	0.0	0.0	146.13793103448276	0.0	0.08117655	-0.115173045	0.9987157050000001	0.36624	0.82404	0.41202	3268165.0	1776544926.701636	0.0	1.0	-1.0	-1.0	-1.0	-1.0	-1.0	-1.0	-1.0	-1.0	0.0	marker	peace	Peace	21	0418
-67785.75	-54589.5	-103960.665	-18157.545	0.0	0.0	0.0	0.0	0.0	0.0	0.0	0.0	0.0	0.0	0.0	0.0	0.0	0.0	146.13793103448276	0.0	0.08117655	-0.115173045	0.9987157050000001	0.36624	0.82404	0.41202	3268166.0	1776544926.70164	0.0	1.0	-1.0	-1.0	-1.0	-1.0	-1.0	-1.0	-1.0	-1.0	0.0	marker	peace	Peace	21	0418
-67769.73	-54580.634999999995	-103869.0	-18113.399999999998	0.0	0.0	0.0	0.0	0.0	0.0	0.0	0.0	0.0	0.0	0.0	0.0	0.0	0.0	146.13793103448276	0.0	0.08117655	-0.115173045	0.9987157050000001	0.36624	0.82404	0.41202	3268167.0	1776544926.701644	0.0	1.0	-1.0	-1.0	-1.0	-1.0	-1.0	-1.0	-1.0	-1.0	0.0	marker	peace	Peace	21	0418
-67904.685	-54593.685	-104126.12999999999	-18213.12	0.0	0.0	0.0	0.0	0.0	0.0	0.0	0.0	0.0	0.0	0.0	0.0	0.0	0.0	146.13793103448276	0.0	0.08117655	-0.115173045	0.9987157050000001	0.36624	0.82404	0.41202	3268168.0	1776544926.701648	0.0	1.0	-1.0	-1.0	-1.0	-1.0	-1.0	-1.0	-1.0	-1.0	0.0	marker	peace	Peace	21	0418
-67980.69	-54608.715	-104300.055	-18333.36	0.0	0.0	0.0	0.0	0.0	0.0	0.0	0.0	0.0	0.0	0.0	0.0	0.0	0.0	146.13793103448276	0.0	0.08117655	-0.115173045	0.9987157050000001	0.36624	0.82404	0.41202	3268169.0	1776544926.701652	0.0	1.0	-1.0	-1.0	-1.0	-1.0	-1.0	-1.0	-1.0	-1.0	0.0	marker	peace	Peace	21	0418
-67922.81999999999	-54617.354999999996	-104325.165	-18300.195	0.0	0.0	0.0	0.0	0.0	0.0	0.0	0.0	0.0	0.0	0.0	0.0	0.0	0.0	146.13793103448276	0.0	0.0659178	-0.126281415	1.007260605	3.41824	0.6409199999999999	-1.0224199999999999	3268170.0	1776544926.701655	0.0	1.0	-1.0	-1.0	-1.0	-1.0	-1.0	-1.0	-1.0	-1.0	0.0	marker	peace	Peace	21	0418
-67939.33499999999	-54629.46	-104280.93	-18303.48	0.0	0.0	0.0	0.0	0.0	0.0	0.0	0.0	0.0	0.0	0.0	0.0	0.0	0.0	146.13793103448276	0.0	0.0659178	-0.126281415	1.007260605	3.41824	0.6409199999999999	-1.0224199999999999	3268171.0	1776544926.701659	0.0	1.0	-1.0	-1.0	-1.0	-1.0	-1.0	-1.0	-1.0	-1.0	0.0	marker	peace	Peace	21	0418
-67862.88	-54634.454999999994	-104112.495	-18265.725	0.0	0.0	0.0	0.0	0.0	0.0	0.0	0.0	0.0	0.0	0.0	0.0	0.0	0.0	146.13793103448276	0.0	0.0659178	-0.126281415	1.007260605	3.41824	0.6409199999999999	-1.0224199999999999	3268172.0	1776544926.701663	0.0	1.0	-1.0	-1.0	-1.0	-1.0	-1.0	-1.0	-1.0	-1.0	0.0	marker	peace	Peace	21	0418
-67905.72	-54644.13	-104035.455	-18246.015	0.0	0.0	0.0	0.0	0.0	0.0	0.0	0.0	0.0	0.0	0.0	0.0	0.0	0.0	146.13793103448276	0.0	0.0659178	-0.126281415	1.007260605	3.41824	0.6409199999999999	-1.0224199999999999	3268173.0	1776544926.701666	0.0	1.0	-1.0	-1.0	-1.0	-1.0	-1.0	-1.0	-1.0	-1.0	0.0	marker	peace	Peace	21	0418
-67925.52	-54656.505	-104129.415	-18265.23	0.0	0.0	0.0	0.0	0.0	0.0	0.0	0.0	0.0	0.0	0.0	0.0	0.0	0.0	146.13793103448276	0.0	0.0659178	-0.126281415	1.007260605	3.41824	0.6409199999999999	-1.0224199999999999	3268174.0	1776544926.70167	0.0	1.0	-1.0	-1.0	-1.0	-1.0	-1.0	-1.0	-1.0	-1.0	0.0	marker	peace	Peace	21	0418
-67905.72	-54659.61	-104169.87	-18227.655	0.0	0.0	0.0	0.0	0.0	0.0	0.0	0.0	0.0	0.0	0.0	0.0	0.0	0.0	146.13793103448276	0.0	0.0659178	-0.126281415	1.007260605	3.41824	0.6409199999999999	-1.0224199999999999	3268175.0	1776544926.701674	0.0	1.0	-1.0	-1.0	-1.0	-1.0	-1.0	-1.0	-1.0	-1.0	0.0	marker	peace	Peace	21	0418
-67915.70999999999	-54665.189999999995	-104249.15999999999	-18236.88	0.0	0.0	0.0	0.0	0.0	0.0	0.0	0.0	0.0	0.0	0.0	0.0	0.0	0.0	146.13793103448276	0.0	0.0659178	-0.126281415	1.007260605	3.41824	0.6409199999999999	-1.0224199999999999	3268176.0	1776544926.701678	0.0	1.0	-1.0	-1.0	-1.0	-1.0	-1.0	-1.0	-1.0	-1.0	0.0	marker	peace	Peace	21	0418
-67840.515	-54657.81	-104139.315	-18166.905	0.0	0.0	0.0	0.0	0.0	0.0	0.0	0.0	0.0	0.0	0.0	0.0	0.0	0.0	146.13793103448276	0.0	0.0659178	-0.126281415	1.007260605	3.41824	0.6409199999999999	-1.0224199999999999	3268177.0	1776544926.701681	0.0	1.0	-1.0	-1.0	-1.0	-1.0	-1.0	-1.0	-1.0	-1.0	0.0	marker	peace	Peace	21	0418
-67986.94499999999	-54661.14	-104184.98999999999	-18257.265	0.0	0.0	0.0	0.0	0.0	0.0	0.0	0.0	0.0	0.0	0.0	0.0	0.0	0.0	146.13793103448276	0.0	0.0659178	-0.126281415	1.007260605	3.41824	0.6409199999999999	-1.0224199999999999	3268178.0	1776544926.701685	0.0	1.0	-1.0	-1.0	-1.0	-1.0	-1.0	-1.0	-1.0	-1.0	0.0	marker	peace	Peace	21	0418
-67995.495	-54665.865	-104188.14	-18323.325	0.0	0.0	0.0	0.0	0.0	0.0	0.0	0.0	0.0	0.0	0.0	0.0	0.0	0.0	146.13793103448276	0.0	0.0659178	-0.126281415	1.007260605	3.41824	0.6409199999999999	-1.0224199999999999	3268179.0	1776544926.701688	0.0	1.0	-1.0	-1.0	-1.0	-1.0	-1.0	-1.0	-1.0	-1.0	0.0	marker	peace	Peace	21	0418
-67933.755	-54662.265	-104166.18	-18282.69	0.0	0.0	0.0	0.0	0.0	0.0	0.0	0.0	0.0	0.0	0.0	0.0	0.0	0.0	146.13793103448276	0.0	0.06176742	-0.12475554	1.011655125	3.92182	0.6867	-0.9308599999999999	3268180.0	1776544926.701692	0.0	1.0	-1.0	-1.0	-1.0	-1.0	-1.0	-1.0	-1.0	-1.0	0.0	marker	peace	Peace	21	0418
-67876.065	-54662.265	-104181.345	-18245.52	0.0	0.0	0.0	0.0	0.0	0.0	0.0	0.0	0.0	0.0	0.0	0.0	0.0	0.0	146.13793103448276	0.0	0.06176742	-0.12475554	1.011655125	3.92182	0.6867	-0.9308599999999999	3268181.0	1776544926.701695	0.0	1.0	-1.0	-1.0	-1.0	-1.0	-1.0	-1.0	-1.0	-1.0	0.0	marker	peace	Peace	21	0418
-67859.055	-54669.735	-104154.48	-18234.719999999998	0.0	0.0	0.0	0.0	0.0	0.0	0.0	0.0	0.0	0.0	0.0	0.0	0.0	0.0	146.13793103448276	0.0	0.06176742	-0.12475554	1.011655125	3.92182	0.6867	-0.9308599999999999	3268182.0	1776544926.701699	0.0	1.0	-1.0	-1.0	-1.0	-1.0	-1.0	-1.0	-1.0	-1.0	0.0	marker	peace	Peace	21	0418
-67870.395	-54664.604999999996	-104093.325	-18203.445	0.0	0.0	0.0	0.0	0.0	0.0	0.0	0.0	0.0	0.0	0.0	0.0	0.0	0.0	146.13793103448276	0.0	0.06176742	-0.12475554	1.011655125	3.92182	0.6867	-0.9308599999999999	3268183.0	1776544926.701702	0.0	1.0	-1.0	-1.0	-1.0	-1.0	-1.0	-1.0	-1.0	-1.0	0.0	marker	peace	Peace	21	0418
-67739.67	-54644.265	-103921.73999999999	-18082.665	0.0	0.0	0.0	0.0	0.0	0.0	0.0	0.0	0.0	0.0	0.0	0.0	0.0	0.0	146.13793103448276	0.0	0.06176742	-0.12475554	1.011655125	3.92182	0.6867	-0.9308599999999999	3268184.0	1776544926.701706	0.0	1.0	-1.0	-1.0	-1.0	-1.0	-1.0	-1.0	-1.0	-1.0	0.0	marker	peace	Peace	21	0418
-67877.505	-54646.74	-104068.8	-18220.905	0.0	0.0	0.0	0.0	0.0	0.0	0.0	0.0	0.0	0.0	0.0	0.0	0.0	0.0	146.13793103448276	0.0	0.06176742	-0.12475554	1.011655125	3.92182	0.6867	-0.9308599999999999	3268185.0	1776544926.70171	0.0	1.0	-1.0	-1.0	-1.0	-1.0	-1.0	-1.0	-1.0	-1.0	0.0	marker	peace	Peace	21	0418
-67867.605	-54645.119999999995	-104177.565	-18279.63	0.0	0.0	0.0	0.0	0.0	0.0	0.0	0.0	0.0	0.0	0.0	0.0	0.0	0.0	146.13793103448276	0.0	0.06176742	-0.12475554	1.011655125	3.92182	0.6867	-0.9308599999999999	3268186.0	1776544926.701714	0.0	1.0	-1.0	-1.0	-1.0	-1.0	-1.0	-1.0	-1.0	-1.0	0.0	marker	peace	Peace	21	0418
-68024.06999999999	-54645.75	-104339.47499999999	-18388.62	0.0	0.0	0.0	0.0	0.0	0.0	0.0	0.0	0.0	0.0	0.0	0.0	0.0	0.0	146.13793103448276	0.0	0.06176742	-0.12475554	1.011655125	3.92182	0.6867	-0.9308599999999999	3268187.0	1776544926.701717	0.0	1.0	-1.0	-1.0	-1.0	-1.0	-1.0	-1.0	-1.0	-1.0	0.0	marker	peace	Peace	21	0418
-68050.08	-54638.865	-104296.905	-18371.024999999998	0.0	0.0	0.0	0.0	0.0	0.0	0.0	0.0	0.0	0.0	0.0	0.0	0.0	0.0	146.13793103448276	0.0	0.06176742	-0.12475554	1.011655125	3.92182	0.6867	-0.9308599999999999	3268188.0	1776544926.701721	0.0	1.0	-1.0	-1.0	-1.0	-1.0	-1.0	-1.0	-1.0	-1.0	0.0	marker	peace	Peace	21	0418
-67939.38	-54629.954999999994	-104178.87	-18269.19	0.0	0.0	0.0	0.0	0.0	0.0	0.0	0.0	0.0	0.0	0.0	0.0	0.0	0.0	146.13793103448276	0.0	0.06176742	-0.12475554	1.011655125	3.92182	0.6867	-0.9308599999999999	3268189.0	1776544926.701724	0.0	1.0	-1.0	-1.0	-1.0	-1.0	-1.0	-1.0	-1.0	-1.0	0.0	marker	peace	Peace	21	0418
-67893.435	-54621.72	-104141.295	-18235.305	0.0	0.0	0.0	0.0	0.0	0.0	0.0	0.0	0.0	0.0	0.0	0.0	0.0	0.0	146.13793103448276	0.0	0.06481917	-0.116882025	1.01232651	4.10494	0.51884	0.28994	3268190.0	1776544926.701728	0.0	1.0	-1.0	-1.0	-1.0	-1.0	-1.0	-1.0	-1.0	-1.0	0.0	marker	peace	Peace	21	0418
-67937.04	-54620.82	-104165.64	-18252.945	0.0	0.0	0.0	0.0	0.0	0.0	0.0	0.0	0.0	0.0	0.0	0.0	0.0	0.0	146.13793103448276	0.0	0.06481917	-0.116882025	1.01232651	4.10494	0.51884	0.28994	3268191.0	1776544926.701731	0.0	1.0	-1.0	-1.0	-1.0	-1.0	-1.0	-1.0	-1.0	-1.0	0.0	marker	peace	Peace	21	0418
-67938.03	-54622.439999999995	-104213.025	-18297.899999999998	0.0	0.0	0.0	0.0	0.0	0.0	0.0	0.0	0.0	0.0	0.0	0.0	0.0	0.0	146.13793103448276	0.0	0.06481917	-0.116882025	1.01232651	4.10494	0.51884	0.28994	3268192.0	1776544926.701735	0.0	1.0	-1.0	-1.0	-1.0	-1.0	-1.0	-1.0	-1.0	-1.0	0.0	marker	peace	Peace	21	0418
-67927.095	-54617.13	-104212.17	-18304.829999999998	0.0	0.0	0.0	0.0	0.0	0.0	0.0	0.0	0.0	0.0	0.0	0.0	0.0	0.0	146.13793103448276	0.0	0.06481917	-0.116882025	1.01232651	4.10494	0.51884	0.28994	3268193.0	1776544926.701738	0.0	1.0	-1.0	-1.0	-1.0	-1.0	-1.0	-1.0	-1.0	-1.0	0.0	marker	peace	Peace	21	0418
-67791.555	-54605.25	-104035.86	-18137.475	0.0	0.0	0.0	0.0	0.0	0.0	0.0	0.0	0.0	0.0	0.0	0.0	0.0	0.0	146.13793103448276	0.0	0.06481917	-0.116882025	1.01232651	4.10494	0.51884	0.28994	3268194.0	1776544926.701742	0.0	1.0	-1.0	-1.0	-1.0	-1.0	-1.0	-1.0	-1.0	-1.0	0.0	marker	peace	Peace	21	0418
-67830.84	-54611.595	-104055.97499999999	-18197.28	0.0	0.0	0.0	0.0	0.0	0.0	0.0	0.0	0.0	0.0	0.0	0.0	0.0	0.0	146.13793103448276	0.0	0.06481917	-0.116882025	1.01232651	4.10494	0.51884	0.28994	3268195.0	1776544926.701745	0.0	1.0	-1.0	-1.0	-1.0	-1.0	-1.0	-1.0	-1.0	-1.0	0.0	marker	peace	Peace	21	0418
-67903.515	-54613.259999999995	-104071.14	-18277.155	0.0	0.0	0.0	0.0	0.0	0.0	0.0	0.0	0.0	0.0	0.0	0.0	0.0	0.0	146.13793103448276	0.0	0.06481917	-0.116882025	1.01232651	4.10494	0.51884	0.28994	3268196.0	1776544926.701749	0.0	1.0	-1.0	-1.0	-1.0	-1.0	-1.0	-1.0	-1.0	-1.0	0.0	marker	peace	Peace	21	0418
-67973.44499999999	-54622.305	-104188.72499999999	-18341.19	0.0	0.0	0.0	0.0	0.0	0.0	0.0	0.0	0.0	0.0	0.0	0.0	0.0	0.0	146.13793103448276	0.0	0.06481917	-0.116882025	1.01232651	4.10494	0.51884	0.28994	3268197.0	1776544926.701752	0.0	1.0	-1.0	-1.0	-1.0	-1.0	-1.0	-1.0	-1.0	-1.0	0.0	marker	peace	Peace	21	0418
-67965.12	-54632.07	-104238.045	-18319.364999999998	0.0	0.0	0.0	0.0	0.0	0.0	0.0	0.0	0.0	0.0	0.0	0.0	0.0	0.0	146.13793103448276	0.0	0.06481917	-0.116882025	1.01232651	4.10494	0.51884	0.28994	3268198.0	1776544926.701756	0.0	1.0	-1.0	-1.0	-1.0	-1.0	-1.0	-1.0	-1.0	-1.0	0.0	marker	peace	Peace	21	0418
-68017.635	-54639.494999999995	-104268.33	-18308.835	0.0	0.0	0.0	0.0	0.0	0.0	0.0	0.0	0.0	0.0	0.0	0.0	0.0	0.0	146.13793103448276	0.0	0.06481917	-0.116882025	1.01232651	4.10494	0.51884	0.28994	3268199.0	1776544926.701759	0.0	1.0	-1.0	-1.0	-1.0	-1.0	-1.0	-1.0	-1.0	-1.0	0.0	marker	peace	Peace	21	0418
-67951.62	-54641.475	-104297.58	-18315.36	0.0	0.0	0.0	0.0	0.0	0.0	0.0	0.0	0.0	0.0	0.0	0.0	0.0	0.0	146.13793103448276	0.0	0.068054025	-0.118346865	1.003476435	2.22796	1.2818399999999999	-0.27468	3268200.0	1776544926.701763	0.0	1.0	-1.0	-1.0	-1.0	-1.0	-1.0	-1.0	-1.0	-1.0	0.0	marker	peace	Peace	21	0418
-67777.875	-54636.39	-104082.93	-18162.719999999998	0.0	0.0	0.0	0.0	0.0	0.0	0.0	0.0	0.0	0.0	0.0	0.0	0.0	0.0	146.13793103448276	0.0	0.068054025	-0.118346865	1.003476435	2.22796	1.2818399999999999	-0.27468	3268201.0	1776544926.701766	0.0	1.0	-1.0	-1.0	-1.0	-1.0	-1.0	-1.0	-1.0	-1.0	0.0	marker	peace	Peace	21	0418
-67661.055	-54632.204999999994	-103901.94	-18029.969999999998	0.0	0.0	0.0	0.0	0.0	0.0	0.0	0.0	0.0	0.0	0.0	0.0	0.0	0.0	146.13793103448276	0.0	0.068054025	-0.118346865	1.003476435	2.22796	1.2818399999999999	-0.27468	3268202.0	1776544926.70177	0.0	1.0	-1.0	-1.0	-1.0	-1.0	-1.0	-1.0	-1.0	-1.0	0.0	marker	peace	Peace	21	0418
-67992.61499999999	-54656.595	-104245.69499999999	-18370.079999999998	0.0	0.0	0.0	0.0	0.0	0.0	0.0	0.0	0.0	0.0	0.0	0.0	0.0	0.0	146.13793103448276	0.0	0.068054025	-0.118346865	1.003476435	2.22796	1.2818399999999999	-0.27468	3268203.0	1776544926.701773	0.0	1.0	-1.0	-1.0	-1.0	-1.0	-1.0	-1.0	-1.0	-1.0	0.0	marker	peace	Peace	21	0418
-67894.92	-54656.145	-104242.545	-18292.68	0.0	0.0	0.0	0.0	0.0	0.0	0.0	0.0	0.0	0.0	0.0	0.0	0.0	0.0	146.13793103448276	0.0	0.068054025	-0.118346865	1.003476435	2.22796	1.2818399999999999	-0.27468	3268204.0	1776544926.701777	0.0	1.0	-1.0	-1.0	-1.0	-1.0	-1.0	-1.0	-1.0	-1.0	0.0	marker	peace	Peace	21	0418
-67960.755	-54670.14	-104235.56999999999	-18295.739999999998	0.0	0.0	0.0	0.0	0.0	0.0	0.0	0.0	0.0	0.0	0.0	0.0	0.0	0.0	146.13793103448276	0.0	0.068054025	-0.118346865	1.003476435	2.22796	1.2818399999999999	-0.27468	3268205.0	1776544926.70178	0.0	1.0	-1.0	-1.0	-1.0	-1.0	-1.0	-1.0	-1.0	-1.0	0.0	marker	peace	Peace	21	0418
-68098.275	-54689.805	-104269.00499999999	-18364.995	0.0	0.0	0.0	0.0	0.0	0.0	0.0	0.0	0.0	0.0	0.0	0.0	0.0	0.0	146.13793103448276	0.0	0.068054025	-0.118346865	1.003476435	2.22796	1.2818399999999999	-0.27468	3268206.0	1776544926.701784	0.0	1.0	-1.0	-1.0	-1.0	-1.0	-1.0	-1.0	-1.0	-1.0	0.0	marker	peace	Peace	21	0418
-67971.69	-54698.805	-104186.83499999999	-18293.445	0.0	0.0	0.0	0.0	0.0	0.0	0.0	0.0	0.0	0.0	0.0	0.0	0.0	0.0	146.13793103448276	0.0	0.068054025	-0.118346865	1.003476435	2.22796	1.2818399999999999	-0.27468	3268207.0	1776544926.701788	0.0	1.0	-1.0	-1.0	-1.0	-1.0	-1.0	-1.0	-1.0	-1.0	0.0	marker	peace	Peace	21	0418
-67862.7	-54699.704999999994	-104106.375	-18207.225	0.0	0.0	0.0	0.0	0.0	0.0	0.0	0.0	0.0	0.0	0.0	0.0	0.0	0.0	146.13793103448276	0.0	0.068054025	-0.118346865	1.003476435	2.22796	1.2818399999999999	-0.27468	3268208.0	1776544926.704247	0.0	1.0	-1.0	-1.0	-1.0	-1.0	-1.0	-1.0	-1.0	-1.0	0.0	marker	peace	Peace	21	0418
-67890.23999999999	-54688.454999999994	-104113.53	-18214.739999999998	0.0	0.0	0.0	0.0	0.0	0.0	0.0	0.0	0.0	0.0	0.0	0.0	0.0	0.0	146.13793103448276	0.0	0.068054025	-0.118346865	1.003476435	2.22796	1.2818399999999999	-0.27468	3268209.0	1776544926.704252	0.0	1.0	-1.0	-1.0	-1.0	-1.0	-1.0	-1.0	-1.0	-1.0	0.0	marker	peace	Peace	21	0418
-67920.48	-54677.025	-104102.14499999999	-18272.969999999998	0.0	0.0	0.0	0.0	0.0	0.0	0.0	0.0	0.0	0.0	0.0	0.0	0.0	0.0	146.13793103448276	0.0	0.07043439	-0.121276545	1.00658922	1.0682	1.49548	0.6867	3268210.0	1776544926.708258	0.0	1.0	-1.0	-1.0	-1.0	-1.0	-1.0	-1.0	-1.0	-1.0	0.0	marker	peace	Peace	21	0418
-67948.38	-54680.4	-104212.53	-18271.98	0.0	0.0	0.0	0.0	0.0	0.0	0.0	0.0	0.0	0.0	0.0	0.0	0.0	0.0	146.13793103448276	0.0	0.07043439	-0.121276545	1.00658922	1.0682	1.49548	0.6867	3268211.0	1776544926.708267	0.0	1.0	-1.0	-1.0	-1.0	-1.0	-1.0	-1.0	-1.0	-1.0	0.0	marker	peace	Peace	21	0418
-67902.255	-54683.369999999995	-104243.12999999999	-18286.065	0.0	0.0	0.0	0.0	0.0	0.0	0.0	0.0	0.0	0.0	0.0	0.0	0.0	0.0	146.13793103448276	0.0	0.07043439	-0.121276545	1.00658922	1.0682	1.49548	0.6867	3268212.0	1776544926.712311	0.0	1.0	-1.0	-1.0	-1.0	-1.0	-1.0	-1.0	-1.0	-1.0	0.0	marker	peace	Peace	21	0418
-67871.79	-54684.27	-104178.42	-18252.135	0.0	0.0	0.0	0.0	0.0	0.0	0.0	0.0	0.0	0.0	0.0	0.0	0.0	0.0	146.13793103448276	0.0	0.07043439	-0.121276545	1.00658922	1.0682	1.49548	0.6867	3268213.0	1776544926.712319	0.0	1.0	-1.0	-1.0	-1.0	-1.0	-1.0	-1.0	-1.0	-1.0	0.0	marker	peace	Peace	21	0418
-67858.83	-54688.95	-104104.215	-18205.92	0.0	0.0	0.0	0.0	0.0	0.0	0.0	0.0	0.0	0.0	0.0	0.0	0.0	0.0	146.13793103448276	0.0	0.07043439	-0.121276545	1.00658922	1.0682	1.49548	0.6867	3268214.0	1776544926.716063	0.0	1.0	-1.0	-1.0	-1.0	-1.0	-1.0	-1.0	-1.0	-1.0	0.0	marker	peace	Peace	21	0418
-67940.505	-54694.575	-104205.42	-18307.53	0.0	0.0	0.0	0.0	0.0	0.0	0.0	0.0	0.0	0.0	0.0	0.0	0.0	0.0	146.13793103448276	0.0	0.07043439	-0.121276545	1.00658922	1.0682	1.49548	0.6867	3268215.0	1776544926.71607	0.0	1.0	-1.0	-1.0	-1.0	-1.0	-1.0	-1.0	-1.0	-1.0	0.0	marker	peace	Peace	21	0418
-67893.66	-54679.77	-104188.995	-18269.37	0.0	0.0	0.0	0.0	0.0	0.0	0.0	0.0	0.0	0.0	0.0	0.0	0.0	0.0	146.13793103448276	0.0	0.07043439	-0.121276545	1.00658922	1.0682	1.49548	0.6867	3268216.0	1776544926.720183	0.0	1.0	-1.0	-1.0	-1.0	-1.0	-1.0	-1.0	-1.0	-1.0	0.0	marker	peace	Peace	21	0418
-67639.68	-54650.115	-103929.84	-18012.87	0.0	0.0	0.0	0.0	0.0	0.0	0.0	0.0	0.0	0.0	0.0	0.0	0.0	0.0	146.13793103448276	0.0	0.07043439	-0.121276545	1.00658922	1.0682	1.49548	0.6867	3268217.0	1776544926.720189	0.0	1.0	-1.0	-1.0	-1.0	-1.0	-1.0	-1.0	-1.0	-1.0	0.0	marker	peace	Peace	21	0418
-67925.655	-54665.189999999995	-104181.39	-18274.995	0.0	0.0	0.0	0.0	0.0	0.0	0.0	0.0	0.0	0.0	0.0	0.0	0.0	0.0	146.13793103448276	0.0	0.07043439	-0.121276545	1.00658922	1.0682	1.49548	0.6867	3268218.0	1776544926.725559	0.0	1.0	-1.0	-1.0	-1.0	-1.0	-1.0	-1.0	-1.0	-1.0	0.0	marker	peace	Peace	21	0418
-68099.44499999999	-54680.445	-104346.405	-18418.59	0.0	0.0	0.0	0.0	0.0	0.0	0.0	0.0	0.0	0.0	0.0	0.0	0.0	0.0	146.13793103448276	0.0	0.07043439	-0.121276545	1.00658922	1.0682	1.49548	0.6867	3268219.0	1776544926.725564	0.0	1.0	-1.0	-1.0	-1.0	-1.0	-1.0	-1.0	-1.0	-1.0	0.0	marker	peace	Peace	21	0418
-68002.2	-54682.47	-104234.04	-18335.07	0.0	0.0	0.0	0.0	0.0	0.0	0.0	0.0	0.0	0.0	0.0	0.0	0.0	0.0	146.13793103448276	0.0	0.06164535	-0.12365691000000001	1.011777195	2.5179	0.6867	-0.07629999999999999	3268220.0	1776544926.79646	0.0	1.0	-1.0	-1.0	-1.0	-1.0	-1.0	-1.0	-1.0	-1.0	0.0	marker	peace	Peace	21	0418
-67953.59999999999	-54691.784999999996	-104160.95999999999	-18291.78	0.0	0.0	0.0	0.0	0.0	0.0	0.0	0.0	0.0	0.0	0.0	0.0	0.0	0.0	146.13793103448276	0.0	0.06164535	-0.12365691000000001	1.011777195	2.5179	0.6867	-0.07629999999999999	3268221.0	1776544926.796465	0.0	1.0	-1.0	-1.0	-1.0	-1.0	-1.0	-1.0	-1.0	-1.0	0.0	marker	peace	Peace	21	0418
-67897.395	-54695.79	-104138.86499999999	-18290.835	0.0	0.0	0.0	0.0	0.0	0.0	0.0	0.0	0.0	0.0	0.0	0.0	0.0	0.0	146.13793103448276	0.0	0.06164535	-0.12365691000000001	1.011777195	2.5179	0.6867	-0.07629999999999999	3268222.0	1776544926.79647	0.0	1.0	-1.0	-1.0	-1.0	-1.0	-1.0	-1.0	-1.0	-1.0	0.0	marker	peace	Peace	21	0418
-67888.665	-54685.305	-104105.34	-18237.915	0.0	0.0	0.0	0.0	0.0	0.0	0.0	0.0	0.0	0.0	0.0	0.0	0.0	0.0	146.13793103448276	0.0	0.06164535	-0.12365691000000001	1.011777195	2.5179	0.6867	-0.07629999999999999	3268223.0	1776544926.796473	0.0	1.0	-1.0	-1.0	-1.0	-1.0	-1.0	-1.0	-1.0	-1.0	0.0	marker	peace	Peace	21	0418
-67829.355	-54675.945	-104039.86499999999	-18163.215	0.0	0.0	0.0	0.0	0.0	0.0	0.0	0.0	0.0	0.0	0.0	0.0	0.0	0.0	146.13793103448276	0.0	0.06164535	-0.12365691000000001	1.011777195	2.5179	0.6867	-0.07629999999999999	3268224.0	1776544926.796478	0.0	1.0	-1.0	-1.0	-1.0	-1.0	-1.0	-1.0	-1.0	-1.0	0.0	marker	peace	Peace	21	0418
-67721.805	-54661.814999999995	-103971.735	-18076.05	0.0	0.0	0.0	0.0	0.0	0.0	0.0	0.0	0.0	0.0	0.0	0.0	0.0	0.0	146.13793103448276	0.0	0.06164535	-0.12365691000000001	1.011777195	2.5179	0.6867	-0.07629999999999999	3268225.0	1776544926.796481	0.0	1.0	-1.0	-1.0	-1.0	-1.0	-1.0	-1.0	-1.0	-1.0	0.0	marker	peace	Peace	21	0418
-68052.51	-54673.47	-104239.935	-18349.515	0.0	0.0	0.0	0.0	0.0	0.0	0.0	0.0	0.0	0.0	0.0	0.0	0.0	0.0	146.13793103448276	0.0	0.06164535	-0.12365691000000001	1.011777195	2.5179	0.6867	-0.07629999999999999	3268226.0	1776544926.796487	0.0	1.0	-1.0	-1.0	-1.0	-1.0	-1.0	-1.0	-1.0	-1.0	0.0	marker	peace	Peace	21	0418
-68049.54	-54664.064999999995	-104242.095	-18365.805	0.0	0.0	0.0	0.0	0.0	0.0	0.0	0.0	0.0	0.0	0.0	0.0	0.0	0.0	146.13793103448276	0.0	0.06164535	-0.12365691000000001	1.011777195	2.5179	0.6867	-0.07629999999999999	3268227.0	1776544926.79649	0.0	1.0	-1.0	-1.0	-1.0	-1.0	-1.0	-1.0	-1.0	-1.0	0.0	marker	peace	Peace	21	0418
-67958.775	-54651.735	-104197.76999999999	-18282.285	0.0	0.0	0.0	0.0	0.0	0.0	0.0	0.0	0.0	0.0	0.0	0.0	0.0	0.0	146.13793103448276	0.0	0.06164535	-0.12365691000000001	1.011777195	2.5179	0.6867	-0.07629999999999999	3268228.0	1776544926.796495	0.0	1.0	-1.0	-1.0	-1.0	-1.0	-1.0	-1.0	-1.0	-1.0	0.0	marker	peace	Peace	21	0418
-67903.69499999999	-54658.259999999995	-104171.76	-18246.195	0.0	0.0	0.0	0.0	0.0	0.0	0.0	0.0	0.0	0.0	0.0	0.0	0.0	0.0	146.13793103448276	0.0	0.06164535	-0.12365691000000001	1.011777195	2.5179	0.6867	-0.07629999999999999	3268229.0	1776544926.796498	0.0	1.0	-1.0	-1.0	-1.0	-1.0	-1.0	-1.0	-1.0	-1.0	0.0	marker	peace	Peace	21	0418
-67904.685	-54669.465	-104195.79	-18261.495	0.0	0.0	0.0	0.0	0.0	0.0	0.0	0.0	0.0	0.0	0.0	0.0	0.0	0.0	146.13793103448276	0.0	0.064880205	-0.119323425	1.01574447	3.18934	0.30519999999999997	0.30519999999999997	3268230.0	1776544926.796503	0.0	1.0	-1.0	-1.0	-1.0	-1.0	-1.0	-1.0	-1.0	-1.0	0.0	marker	peace	Peace	21	0418
-67896.045	-54672.704999999994	-104196.64499999999	-18242.415	0.0	0.0	0.0	0.0	0.0	0.0	0.0	0.0	0.0	0.0	0.0	0.0	0.0	0.0	146.13793103448276	0.0	0.064880205	-0.119323425	1.01574447	3.18934	0.30519999999999997	0.30519999999999997	3268231.0	1776544926.796507	0.0	1.0	-1.0	-1.0	-1.0	-1.0	-1.0	-1.0	-1.0	-1.0	0.0	marker	peace	Peace	21	0418
-67925.88	-54682.244999999995	-104169.51	-18262.17	0.0	0.0	0.0	0.0	0.0	0.0	0.0	0.0	0.0	0.0	0.0	0.0	0.0	0.0	146.13793103448276	0.0	0.064880205	-0.119323425	1.01574447	3.18934	0.30519999999999997	0.30519999999999997	3268232.0	1776544926.796512	0.0	1.0	-1.0	-1.0	-1.0	-1.0	-1.0	-1.0	-1.0	-1.0	0.0	marker	peace	Peace	21	0418
-67952.745	-54684.405	-104174.19	-18298.35	0.0	0.0	0.0	0.0	0.0	0.0	0.0	0.0	0.0	0.0	0.0	0.0	0.0	0.0	146.13793103448276	0.0	0.064880205	-0.119323425	1.01574447	3.18934	0.30519999999999997	0.30519999999999997	3268233.0	1776544926.796515	0.0	1.0	-1.0	-1.0	-1.0	-1.0	-1.0	-1.0	-1.0	-1.0	0.0	marker	peace	Peace	21	0418
-67998.015	-54675.494999999995	-104244.25499999999	-18339.344999999998	0.0	0.0	0.0	0.0	0.0	0.0	0.0	0.0	0.0	0.0	0.0	0.0	0.0	0.0	146.13793103448276	0.0	0.064880205	-0.119323425	1.01574447	3.18934	0.30519999999999997	0.30519999999999997	3268234.0	1776544926.79652	0.0	1.0	-1.0	-1.0	-1.0	-1.0	-1.0	-1.0	-1.0	-1.0	0.0	marker	peace	Peace	21	0418
-67934.025	-54660.645	-104170.59	-18286.605	0.0	0.0	0.0	0.0	0.0	0.0	0.0	0.0	0.0	0.0	0.0	0.0	0.0	0.0	146.13793103448276	0.0	0.064880205	-0.119323425	1.01574447	3.18934	0.30519999999999997	0.30519999999999997	3268235.0	1776544926.796524	0.0	1.0	-1.0	-1.0	-1.0	-1.0	-1.0	-1.0	-1.0	-1.0	0.0	marker	peace	Peace	21	0418
-67919.44499999999	-54660.15	-104109.345	-18276.255	0.0	0.0	0.0	0.0	0.0	0.0	0.0	0.0	0.0	0.0	0.0	0.0	0.0	0.0	146.13793103448276	0.0	0.064880205	-0.119323425	1.01574447	3.18934	0.30519999999999997	0.30519999999999997	3268236.0	1776544926.796529	0.0	1.0	-1.0	-1.0	-1.0	-1.0	-1.0	-1.0	-1.0	-1.0	0.0	marker	peace	Peace	21	0418
-67942.935	-54662.265	-104196.915	-18279.675	0.0	0.0	0.0	0.0	0.0	0.0	0.0	0.0	0.0	0.0	0.0	0.0	0.0	0.0	146.13793103448276	0.0	0.064880205	-0.119323425	1.01574447	3.18934	0.30519999999999997	0.30519999999999997	3268237.0	1776544926.796532	0.0	1.0	-1.0	-1.0	-1.0	-1.0	-1.0	-1.0	-1.0	-1.0	0.0	marker	peace	Peace	21	0418
-67950.405	-54665.82	-104170.36499999999	-18262.844999999998	0.0	0.0	0.0	0.0	0.0	0.0	0.0	0.0	0.0	0.0	0.0	0.0	0.0	0.0	146.13793103448276	0.0	0.064880205	-0.119323425	1.01574447	3.18934	0.30519999999999997	0.30519999999999997	3268238.0	1776544926.796537	0.0	1.0	-1.0	-1.0	-1.0	-1.0	-1.0	-1.0	-1.0	-1.0	0.0	marker	peace	Peace	21	0418
-67959.855	-54663.795	-104223.23999999999	-18277.785	0.0	0.0	0.0	0.0	0.0	0.0	0.0	0.0	0.0	0.0	0.0	0.0	0.0	0.0	146.13793103448276	0.0	0.064880205	-0.119323425	1.01574447	3.18934	0.30519999999999997	0.30519999999999997	3268239.0	1776544926.79654	0.0	1.0	-1.0	-1.0	-1.0	-1.0	-1.0	-1.0	-1.0	-1.0	0.0	marker	peace	Peace	21	0418
-67893.48	-54658.17	-104202.98999999999	-18260.325	0.0	0.0	0.0	0.0	0.0	0.0	0.0	0.0	0.0	0.0	0.0	0.0	0.0	0.0	146.13793103448276	0.0	0.06555159	-0.117004095	1.01598861	2.7468	0.16785999999999998	0.6867	3268240.0	1776544926.796546	0.0	1.0	-1.0	-1.0	-1.0	-1.0	-1.0	-1.0	-1.0	-1.0	0.0	marker	peace	Peace	21	0418
-67814.73	-54647.505	-104124.87	-18216.675	0.0	0.0	0.0	0.0	0.0	0.0	0.0	0.0	0.0	0.0	0.0	0.0	0.0	0.0	146.13793103448276	0.0	0.06555159	-0.117004095	1.01598861	2.7468	0.16785999999999998	0.6867	3268241.0	1776544926.79655	0.0	1.0	-1.0	-1.0	-1.0	-1.0	-1.0	-1.0	-1.0	-1.0	0.0	marker	peace	Peace	21	0418
-67849.69499999999	-54651.825	-104141.385	-18224.28	0.0	0.0	0.0	0.0	0.0	0.0	0.0	0.0	0.0	0.0	0.0	0.0	0.0	0.0	146.13793103448276	0.0	0.06555159	-0.117004095	1.01598861	2.7468	0.16785999999999998	0.6867	3268242.0	1776544926.796554	0.0	1.0	-1.0	-1.0	-1.0	-1.0	-1.0	-1.0	-1.0	-1.0	0.0	marker	peace	Peace	21	0418
-67905.405	-54656.64	-104211.135	-18269.46	0.0	0.0	0.0	0.0	0.0	0.0	0.0	0.0	0.0	0.0	0.0	0.0	0.0	0.0	146.13793103448276	0.0	0.06555159	-0.117004095	1.01598861	2.7468	0.16785999999999998	0.6867	3268243.0	1776544926.796557	0.0	1.0	-1.0	-1.0	-1.0	-1.0	-1.0	-1.0	-1.0	-1.0	0.0	marker	peace	Peace	21	0418
-67913.19	-54647.909999999996	-104257.98	-18309.825	0.0	0.0	0.0	0.0	0.0	0.0	0.0	0.0	0.0	0.0	0.0	0.0	0.0	0.0	146.13793103448276	0.0	0.06555159	-0.117004095	1.01598861	2.7468	0.16785999999999998	0.6867	3268244.0	1776544926.796562	0.0	1.0	-1.0	-1.0	-1.0	-1.0	-1.0	-1.0	-1.0	-1.0	0.0	marker	peace	Peace	21	0418
-67873.68	-54643.229999999996	-104182.875	-18228.87	0.0	0.0	0.0	0.0	0.0	0.0	0.0	0.0	0.0	0.0	0.0	0.0	0.0	0.0	146.13793103448276	0.0	0.06555159	-0.117004095	1.01598861	2.7468	0.16785999999999998	0.6867	3268245.0	1776544926.796565	0.0	1.0	-1.0	-1.0	-1.0	-1.0	-1.0	-1.0	-1.0	-1.0	0.0	marker	peace	Peace	21	0418
-67921.69499999999	-54649.485	-104132.61	-18240.84	0.0	0.0	0.0	0.0	0.0	0.0	0.0	0.0	0.0	0.0	0.0	0.0	0.0	0.0	146.13793103448276	0.0	0.06555159	-0.117004095	1.01598861	2.7468	0.16785999999999998	0.6867	3268246.0	1776544926.796569	0.0	1.0	-1.0	-1.0	-1.0	-1.0	-1.0	-1.0	-1.0	-1.0	0.0	marker	peace	Peace	21	0418
-67980.51	-54656.64	-104187.105	-18333.405	0.0	0.0	0.0	0.0	0.0	0.0	0.0	0.0	0.0	0.0	0.0	0.0	0.0	0.0	146.13793103448276	0.0	0.06555159	-0.117004095	1.01598861	2.7468	0.16785999999999998	0.6867	3268247.0	1776544926.796572	0.0	1.0	-1.0	-1.0	-1.0	-1.0	-1.0	-1.0	-1.0	-1.0	0.0	marker	peace	Peace	21	0418
-67964.715	-54662.49	-104220.26999999999	-18337.95	0.0	0.0	0.0	0.0	0.0	0.0	0.0	0.0	0.0	0.0	0.0	0.0	0.0	0.0	146.13793103448276	0.0	0.06555159	-0.117004095	1.01598861	2.7468	0.16785999999999998	0.6867	3268248.0	1776544926.796576	0.0	1.0	-1.0	-1.0	-1.0	-1.0	-1.0	-1.0	-1.0	-1.0	0.0	marker	peace	Peace	21	0418
-67923.22499999999	-54664.92	-104197.68	-18300.78	0.0	0.0	0.0	0.0	0.0	0.0	0.0	0.0	0.0	0.0	0.0	0.0	0.0	0.0	146.13793103448276	0.0	0.06555159	-0.117004095	1.01598861	2.7468	0.16785999999999998	0.6867	3268249.0	1776544926.796584	0.0	1.0	-1.0	-1.0	-1.0	-1.0	-1.0	-1.0	-1.0	-1.0	0.0	marker	peace	Peace	21	0418
-67932.27	-54665.189999999995	-104190.03	-18295.29	0.0	0.0	0.0	0.0	0.0	0.0	0.0	0.0	0.0	0.0	0.0	0.0	0.0	0.0	146.13793103448276	0.0	0.067443675	-0.122008965	1.00903062	2.92992	0.16785999999999998	-0.39676	3268250.0	1776544926.796588	0.0	1.0	-1.0	-1.0	-1.0	-1.0	-1.0	-1.0	-1.0	-1.0	0.0	marker	peace	Peace	21	0418
-67874.44499999999	-54657.27	-104166.62999999999	-18272.655	0.0	0.0	0.0	0.0	0.0	0.0	0.0	0.0	0.0	0.0	0.0	0.0	0.0	0.0	146.13793103448276	0.0	0.067443675	-0.122008965	1.00903062	2.92992	0.16785999999999998	-0.39676	3268251.0	1776544926.796591	0.0	1.0	-1.0	-1.0	-1.0	-1.0	-1.0	-1.0	-1.0	-1.0	0.0	marker	peace	Peace	21	0418
-67877.64	-54646.829999999994	-104128.515	-18231.075	0.0	0.0	0.0	0.0	0.0	0.0	0.0	0.0	0.0	0.0	0.0	0.0	0.0	0.0	146.13793103448276	0.0	0.067443675	-0.122008965	1.00903062	2.92992	0.16785999999999998	-0.39676	3268252.0	1776544926.796595	0.0	1.0	-1.0	-1.0	-1.0	-1.0	-1.0	-1.0	-1.0	-1.0	0.0	marker	peace	Peace	21	0418
-67979.47499999999	-54648.494999999995	-104210.50499999999	-18287.19	0.0	0.0	0.0	0.0	0.0	0.0	0.0	0.0	0.0	0.0	0.0	0.0	0.0	0.0	146.13793103448276	0.0	0.067443675	-0.122008965	1.00903062	2.92992	0.16785999999999998	-0.39676	3268253.0	1776544926.796598	0.0	1.0	-1.0	-1.0	-1.0	-1.0	-1.0	-1.0	-1.0	-1.0	0.0	marker	peace	Peace	21	0418
-67915.53	-54661.095	-104177.15999999999	-18260.19	0.0	0.0	0.0	0.0	0.0	0.0	0.0	0.0	0.0	0.0	0.0	0.0	0.0	0.0	146.13793103448276	0.0	0.067443675	-0.122008965	1.00903062	2.92992	0.16785999999999998	-0.39676	3268254.0	1776544926.797329	0.0	1.0	-1.0	-1.0	-1.0	-1.0	-1.0	-1.0	-1.0	-1.0	0.0	marker	peace	Peace	21	0418
-67795.605	-54663.299999999996	-103990.5	-18113.715	0.0	0.0	0.0	0.0	0.0	0.0	0.0	0.0	0.0	0.0	0.0	0.0	0.0	0.0	146.13793103448276	0.0	0.067443675	-0.122008965	1.00903062	2.92992	0.16785999999999998	-0.39676	3268255.0	1776544926.797334	0.0	1.0	-1.0	-1.0	-1.0	-1.0	-1.0	-1.0	-1.0	-1.0	0.0	marker	peace	Peace	21	0418
-67868.37	-54666.9	-104088.735	-18202.635	0.0	0.0	0.0	0.0	0.0	0.0	0.0	0.0	0.0	0.0	0.0	0.0	0.0	0.0	146.13793103448276	0.0	0.067443675	-0.122008965	1.00903062	2.92992	0.16785999999999998	-0.39676	3268256.0	1776544926.800522	0.0	1.0	-1.0	-1.0	-1.0	-1.0	-1.0	-1.0	-1.0	-1.0	0.0	marker	peace	Peace	21	0418
-67912.515	-54676.71	-104178.465	-18286.829999999998	0.0	0.0	0.0	0.0	0.0	0.0	0.0	0.0	0.0	0.0	0.0	0.0	0.0	0.0	146.13793103448276	0.0	0.067443675	-0.122008965	1.00903062	2.92992	0.16785999999999998	-0.39676	3268257.0	1776544926.800526	0.0	1.0	-1.0	-1.0	-1.0	-1.0	-1.0	-1.0	-1.0	-1.0	0.0	marker	peace	Peace	21	0418
-67859.325	-54665.28	-104088.23999999999	-18207.719999999998	0.0	0.0	0.0	0.0	0.0	0.0	0.0	0.0	0.0	0.0	0.0	0.0	0.0	0.0	146.13793103448276	0.0	0.067443675	-0.122008965	1.00903062	2.92992	0.16785999999999998	-0.39676	3268258.0	1776544926.872475	0.0	1.0	-1.0	-1.0	-1.0	-1.0	-1.0	-1.0	-1.0	-1.0	0.0	marker	peace	Peace	21	0418
-67862.06999999999	-54655.02	-104096.25	-18187.425	0.0	0.0	0.0	0.0	0.0	0.0	0.0	0.0	0.0	0.0	0.0	0.0	0.0	0.0	146.13793103448276	0.0	0.067443675	-0.122008965	1.00903062	2.92992	0.16785999999999998	-0.39676	3268259.0	1776544926.872514	0.0	1.0	-1.0	-1.0	-1.0	-1.0	-1.0	-1.0	-1.0	-1.0	0.0	marker	peace	Peace	21	0418
-67937.04	-54652.365	-104125.76999999999	-18284.535	0.0	0.0	0.0	0.0	0.0	0.0	0.0	0.0	0.0	0.0	0.0	0.0	0.0	0.0	146.13793103448276	0.0	0.067199535	-0.124572435	1.007016465	2.73154	1.2055399999999998	-0.06104	3268260.0	1776544926.872558	0.0	1.0	-1.0	-1.0	-1.0	-1.0	-1.0	-1.0	-1.0	-1.0	0.0	marker	peace	Peace	21	0418
-68015.295	-54658.034999999996	-104162.89499999999	-18309.329999999998	0.0	0.0	0.0	0.0	0.0	0.0	0.0	0.0	0.0	0.0	0.0	0.0	0.0	0.0	146.13793103448276	0.0	0.067199535	-0.124572435	1.007016465	2.73154	1.2055399999999998	-0.06104	3268261.0	1776544926.872578	0.0	1.0	-1.0	-1.0	-1.0	-1.0	-1.0	-1.0	-1.0	-1.0	0.0	marker	peace	Peace	21	0418
-67914.675	-54658.35	-104083.155	-18268.965	0.0	0.0	0.0	0.0	0.0	0.0	0.0	0.0	0.0	0.0	0.0	0.0	0.0	0.0	146.13793103448276	0.0	0.067199535	-0.124572435	1.007016465	2.73154	1.2055399999999998	-0.06104	3268262.0	1776544926.872601	0.0	1.0	-1.0	-1.0	-1.0	-1.0	-1.0	-1.0	-1.0	-1.0	0.0	marker	peace	Peace	21	0418
-67936.23	-54662.67	-104132.87999999999	-18270.989999999998	0.0	0.0	0.0	0.0	0.0	0.0	0.0	0.0	0.0	0.0	0.0	0.0	0.0	0.0	146.13793103448276	0.0	0.067199535	-0.124572435	1.007016465	2.73154	1.2055399999999998	-0.06104	3268263.0	1776544926.872619	0.0	1.0	-1.0	-1.0	-1.0	-1.0	-1.0	-1.0	-1.0	-1.0	0.0	marker	peace	Peace	21	0418
-67964.625	-54666.99	-104274.45	-18280.17	0.0	0.0	0.0	0.0	0.0	0.0	0.0	0.0	0.0	0.0	0.0	0.0	0.0	0.0	146.13793103448276	0.0	0.067199535	-0.124572435	1.007016465	2.73154	1.2055399999999998	-0.06104	3268264.0	1776544926.87274	0.0	1.0	-1.0	-1.0	-1.0	-1.0	-1.0	-1.0	-1.0	-1.0	0.0	marker	peace	Peace	21	0418
-67979.295	-54679.365	-104334.25499999999	-18337.094999999998	0.0	0.0	0.0	0.0	0.0	0.0	0.0	0.0	0.0	0.0	0.0	0.0	0.0	0.0	146.13793103448276	0.0	0.067199535	-0.124572435	1.007016465	2.73154	1.2055399999999998	-0.06104	3268265.0	1776544926.872771	0.0	1.0	-1.0	-1.0	-1.0	-1.0	-1.0	-1.0	-1.0	-1.0	0.0	marker	peace	Peace	21	0418
-67964.265	-54708.84	-104276.43	-18315.495	0.0	0.0	0.0	0.0	0.0	0.0	0.0	0.0	0.0	0.0	0.0	0.0	0.0	0.0	146.13793103448276	0.0	0.067199535	-0.124572435	1.007016465	2.73154	1.2055399999999998	-0.06104	3268266.0	1776544926.872805	0.0	1.0	-1.0	-1.0	-1.0	-1.0	-1.0	-1.0	-1.0	-1.0	0.0	marker	peace	Peace	21	0418
-67942.17	-54699.615	-104216.805	-18285.12	0.0	0.0	0.0	0.0	0.0	0.0	0.0	0.0	0.0	0.0	0.0	0.0	0.0	0.0	146.13793103448276	0.0	0.067199535	-0.124572435	1.007016465	2.73154	1.2055399999999998	-0.06104	3268267.0	1776544926.872826	0.0	1.0	-1.0	-1.0	-1.0	-1.0	-1.0	-1.0	-1.0	-1.0	0.0	marker	peace	Peace	21	0418
-67963.95	-54691.47	-104196.825	-18298.305	0.0	0.0	0.0	0.0	0.0	0.0	0.0	0.0	0.0	0.0	0.0	0.0	0.0	0.0	146.13793103448276	0.0	0.067199535	-0.124572435	1.007016465	2.73154	1.2055399999999998	-0.06104	3268268.0	1776544926.872856	0.0	1.0	-1.0	-1.0	-1.0	-1.0	-1.0	-1.0	-1.0	-1.0	0.0	marker	peace	Peace	21	0418
-67897.8	-54679.994999999995	-104150.11499999999	-18255.87	0.0	0.0	0.0	0.0	0.0	0.0	0.0	0.0	0.0	0.0	0.0	0.0	0.0	0.0	146.13793103448276	0.0	0.067199535	-0.124572435	1.007016465	2.73154	1.2055399999999998	-0.06104	3268269.0	1776544926.87288	0.0	1.0	-1.0	-1.0	-1.0	-1.0	-1.0	-1.0	-1.0	-1.0	0.0	marker	peace	Peace	21	0418
-67850.415	-54676.89	-104124.69	-18209.969999999998	0.0	0.0	0.0	0.0	0.0	0.0	0.0	0.0	0.0	0.0	0.0	0.0	0.0	0.0	146.13793103448276	0.0	0.063171225	-0.12780729	1.00927476	1.9838	0.65618	-0.71722	3268270.0	1776544926.872957	0.0	1.0	-1.0	-1.0	-1.0	-1.0	-1.0	-1.0	-1.0	-1.0	0.0	marker	peace	Peace	21	0418
-67944.87	-54681.615	-104214.95999999999	-18282.105	0.0	0.0	0.0	0.0	0.0	0.0	0.0	0.0	0.0	0.0	0.0	0.0	0.0	0.0	146.13793103448276	0.0	0.063171225	-0.12780729	1.00927476	1.9838	0.65618	-0.71722	3268271.0	1776544926.873001	0.0	1.0	-1.0	-1.0	-1.0	-1.0	-1.0	-1.0	-1.0	-1.0	0.0	marker	peace	Peace	21	0418
-67971.015	-54679.634999999995	-104243.58	-18334.62	0.0	0.0	0.0	0.0	0.0	0.0	0.0	0.0	0.0	0.0	0.0	0.0	0.0	0.0	146.13793103448276	0.0	0.063171225	-0.12780729	1.00927476	1.9838	0.65618	-0.71722	3268272.0	1776544926.873031	0.0	1.0	-1.0	-1.0	-1.0	-1.0	-1.0	-1.0	-1.0	-1.0	0.0	marker	peace	Peace	21	0418
-67921.69499999999	-54679.229999999996	-104210.28	-18297.045	0.0	0.0	0.0	0.0	0.0	0.0	0.0	0.0	0.0	0.0	0.0	0.0	0.0	0.0	146.13793103448276	0.0	0.063171225	-0.12780729	1.00927476	1.9838	0.65618	-0.71722	3268273.0	1776544926.87305	0.0	1.0	-1.0	-1.0	-1.0	-1.0	-1.0	-1.0	-1.0	-1.0	0.0	marker	peace	Peace	21	0418
-67921.02	-54677.115	-104189.94	-18276.84	0.0	0.0	0.0	0.0	0.0	0.0	0.0	0.0	0.0	0.0	0.0	0.0	0.0	0.0	146.13793103448276	0.0	0.063171225	-0.12780729	1.00927476	1.9838	0.65618	-0.71722	3268274.0	1776544926.87308	0.0	1.0	-1.0	-1.0	-1.0	-1.0	-1.0	-1.0	-1.0	-1.0	0.0	marker	peace	Peace	21	0418
-67909.005	-54669.465	-104162.67	-18276.03	0.0	0.0	0.0	0.0	0.0	0.0	0.0	0.0	0.0	0.0	0.0	0.0	0.0	0.0	146.13793103448276	0.0	0.063171225	-0.12780729	1.00927476	1.9838	0.65618	-0.71722	3268275.0	1776544926.873098	0.0	1.0	-1.0	-1.0	-1.0	-1.0	-1.0	-1.0	-1.0	-1.0	0.0	marker	peace	Peace	21	0418
-67948.02	-54655.244999999995	-104169.69	-18265.5	0.0	0.0	0.0	0.0	0.0	0.0	0.0	0.0	0.0	0.0	0.0	0.0	0.0	0.0	146.13793103448276	0.0	0.063171225	-0.12780729	1.00927476	1.9838	0.65618	-0.71722	3268276.0	1776544926.87312	0.0	1.0	-1.0	-1.0	-1.0	-1.0	-1.0	-1.0	-1.0	-1.0	0.0	marker	peace	Peace	21	0418
-67937.535	-54646.47	-104154.03	-18258.84	0.0	0.0	0.0	0.0	0.0	0.0	0.0	0.0	0.0	0.0	0.0	0.0	0.0	0.0	146.13793103448276	0.0	0.063171225	-0.12780729	1.00927476	1.9838	0.65618	-0.71722	3268277.0	1776544926.873138	0.0	1.0	-1.0	-1.0	-1.0	-1.0	-1.0	-1.0	-1.0	-1.0	0.0	marker	peace	Peace	21	0418
-67885.65	-54655.56	-104125.23	-18236.88	0.0	0.0	0.0	0.0	0.0	0.0	0.0	0.0	0.0	0.0	0.0	0.0	0.0	0.0	146.13793103448276	0.0	0.063171225	-0.12780729	1.00927476	1.9838	0.65618	-0.71722	3268278.0	1776544926.873159	0.0	1.0	-1.0	-1.0	-1.0	-1.0	-1.0	-1.0	-1.0	-1.0	0.0	marker	peace	Peace	21	0418
-67898.97	-54668.924999999996	-104161.31999999999	-18274.545	0.0	0.0	0.0	0.0	0.0	0.0	0.0	0.0	0.0	0.0	0.0	0.0	0.0	0.0	146.13793103448276	0.0	0.063171225	-0.12780729	1.00927476	1.9838	0.65618	-0.71722	3268279.0	1776544926.873176	0.0	1.0	-1.0	-1.0	-1.0	-1.0	-1.0	-1.0	-1.0	-1.0	0.0	marker	peace	Peace	21	0418
-67875.48	-54675.314999999995	-104099.04	-18218.34	0.0	0.0	0.0	0.0	0.0	0.0	0.0	0.0	0.0	0.0	0.0	0.0	0.0	0.0	146.13793103448276	0.0	0.059142915000000004	-0.129333165	1.01159409	3.41824	0.44254	-1.09872	3268280.0	1776544926.873198	0.0	1.0	-1.0	-1.0	-1.0	-1.0	-1.0	-1.0	-1.0	-1.0	0.0	marker	peace	Peace	21	0418
-67841.145	-54672.345	-104037.12	-18183.825	0.0	0.0	0.0	0.0	0.0	0.0	0.0	0.0	0.0	0.0	0.0	0.0	0.0	0.0	146.13793103448276	0.0	0.059142915000000004	-0.129333165	1.01159409	3.41824	0.44254	-1.09872	3268281.0	1776544926.873215	0.0	1.0	-1.0	-1.0	-1.0	-1.0	-1.0	-1.0	-1.0	-1.0	0.0	marker	peace	Peace	21	0418
-67979.97	-54678.42	-104157.18	-18312.704999999998	0.0	0.0	0.0	0.0	0.0	0.0	0.0	0.0	0.0	0.0	0.0	0.0	0.0	0.0	146.13793103448276	0.0	0.059142915000000004	-0.129333165	1.01159409	3.41824	0.44254	-1.09872	3268282.0	1776544926.873236	0.0	1.0	-1.0	-1.0	-1.0	-1.0	-1.0	-1.0	-1.0	-1.0	0.0	marker	peace	Peace	21	0418
-67933.845	-54660.24	-104058.36	-18248.985	0.0	0.0	0.0	0.0	0.0	0.0	0.0	0.0	0.0	0.0	0.0	0.0	0.0	0.0	146.13793103448276	0.0	0.059142915000000004	-0.129333165	1.01159409	3.41824	0.44254	-1.09872	3268283.0	1776544926.873253	0.0	1.0	-1.0	-1.0	-1.0	-1.0	-1.0	-1.0	-1.0	-1.0	0.0	marker	peace	Peace	21	0418
-67954.77	-54645.479999999996	-104196.28499999999	-18268.38	0.0	0.0	0.0	0.0	0.0	0.0	0.0	0.0	0.0	0.0	0.0	0.0	0.0	0.0	146.13793103448276	0.0	0.059142915000000004	-0.129333165	1.01159409	3.41824	0.44254	-1.09872	3268284.0	1776544926.873273	0.0	1.0	-1.0	-1.0	-1.0	-1.0	-1.0	-1.0	-1.0	-1.0	0.0	marker	peace	Peace	21	0418
-67926.645	-54634.454999999994	-104267.15999999999	-18268.245	0.0	0.0	0.0	0.0	0.0	0.0	0.0	0.0	0.0	0.0	0.0	0.0	0.0	0.0	146.13793103448276	0.0	0.059142915000000004	-0.129333165	1.01159409	3.41824	0.44254	-1.09872	3268285.0	1776544926.873291	0.0	1.0	-1.0	-1.0	-1.0	-1.0	-1.0	-1.0	-1.0	-1.0	0.0	marker	peace	Peace	21	0418
-67915.665	-54628.38	-104224.095	-18265.725	0.0	0.0	0.0	0.0	0.0	0.0	0.0	0.0	0.0	0.0	0.0	0.0	0.0	0.0	146.13793103448276	0.0	0.059142915000000004	-0.129333165	1.01159409	3.41824	0.44254	-1.09872	3268286.0	1776544926.873312	0.0	1.0	-1.0	-1.0	-1.0	-1.0	-1.0	-1.0	-1.0	-1.0	0.0	marker	peace	Peace	21	0418
-67949.505	-54625.185	-104184.54	-18242.19	0.0	0.0	0.0	0.0	0.0	0.0	0.0	0.0	0.0	0.0	0.0	0.0	0.0	0.0	146.13793103448276	0.0	0.059142915000000004	-0.129333165	1.01159409	3.41824	0.44254	-1.09872	3268287.0	1776544926.87333	0.0	1.0	-1.0	-1.0	-1.0	-1.0	-1.0	-1.0	-1.0	-1.0	0.0	marker	peace	Peace	21	0418
-67918.77	-54625.725	-104161.545	-18280.079999999998	0.0	0.0	0.0	0.0	0.0	0.0	0.0	0.0	0.0	0.0	0.0	0.0	0.0	0.0	146.13793103448276	0.0	0.059142915000000004	-0.129333165	1.01159409	3.41824	0.44254	-1.09872	3268288.0	1776544926.873351	0.0	1.0	-1.0	-1.0	-1.0	-1.0	-1.0	-1.0	-1.0	-1.0	0.0	marker	peace	Peace	21	0418
-67889.06999999999	-54625.32	-104122.17	-18253.17	0.0	0.0	0.0	0.0	0.0	0.0	0.0	0.0	0.0	0.0	0.0	0.0	0.0	0.0	146.13793103448276	0.0	0.059142915000000004	-0.129333165	1.01159409	3.41824	0.44254	-1.09872	3268289.0	1776544926.873368	0.0	1.0	-1.0	-1.0	-1.0	-1.0	-1.0	-1.0	-1.0	-1.0	0.0	marker	peace	Peace	21	0418
-67945.455	-54634.365	-104202.36	-18269.325	0.0	0.0	0.0	0.0	0.0	0.0	0.0	0.0	0.0	0.0	0.0	0.0	0.0	0.0	146.13793103448276	0.0	0.0634764	-0.12719694	1.014096525	3.95234	0.03052	-1.77016	3268290.0	1776544926.873389	0.0	1.0	-1.0	-1.0	-1.0	-1.0	-1.0	-1.0	-1.0	-1.0	0.0	marker	peace	Peace	21	0418
-67980.42	-54634.5	-104217.075	-18279.765	0.0	0.0	0.0	0.0	0.0	0.0	0.0	0.0	0.0	0.0	0.0	0.0	0.0	0.0	146.13793103448276	0.0	0.0634764	-0.12719694	1.014096525	3.95234	0.03052	-1.77016	3268291.0	1776544926.873406	0.0	1.0	-1.0	-1.0	-1.0	-1.0	-1.0	-1.0	-1.0	-1.0	0.0	marker	peace	Peace	21	0418
-67960.53	-54630.54	-104233.545	-18318.735	0.0	0.0	0.0	0.0	0.0	0.0	0.0	0.0	0.0	0.0	0.0	0.0	0.0	0.0	146.13793103448276	0.0	0.0634764	-0.12719694	1.014096525	3.95234	0.03052	-1.77016	3268292.0	1776544926.873427	0.0	1.0	-1.0	-1.0	-1.0	-1.0	-1.0	-1.0	-1.0	-1.0	0.0	marker	peace	Peace	21	0418
-67932.54	-54625.634999999995	-104222.565	-18318.78	0.0	0.0	0.0	0.0	0.0	0.0	0.0	0.0	0.0	0.0	0.0	0.0	0.0	0.0	146.13793103448276	0.0	0.0634764	-0.12719694	1.014096525	3.95234	0.03052	-1.77016	3268293.0	1776544926.873444	0.0	1.0	-1.0	-1.0	-1.0	-1.0	-1.0	-1.0	-1.0	-1.0	0.0	marker	peace	Peace	21	0418
-67921.785	-54614.88	-104170.05	-18273.6	0.0	0.0	0.0	0.0	0.0	0.0	0.0	0.0	0.0	0.0	0.0	0.0	0.0	0.0	146.13793103448276	0.0	0.0634764	-0.12719694	1.014096525	3.95234	0.03052	-1.77016	3268294.0	1776544927.010305	0.0	1.0	-1.0	-1.0	-1.0	-1.0	-1.0	-1.0	-1.0	-1.0	0.0	marker	peace	Peace	21	0418
-67930.2	-54610.2	-104170.59	-18264.329999999998	0.0	0.0	0.0	0.0	0.0	0.0	0.0	0.0	0.0	0.0	0.0	0.0	0.0	0.0	146.13793103448276	0.0	0.0634764	-0.12719694	1.014096525	3.95234	0.03052	-1.77016	3268295.0	1776544927.010341	0.0	1.0	-1.0	-1.0	-1.0	-1.0	-1.0	-1.0	-1.0	-1.0	0.0	marker	peace	Peace	21	0418
-67908.42	-54610.38	-104182.515	-18268.559999999998	0.0	0.0	0.0	0.0	0.0	0.0	0.0	0.0	0.0	0.0	0.0	0.0	0.0	0.0	146.13793103448276	0.0	0.0634764	-0.12719694	1.014096525	3.95234	0.03052	-1.77016	3268296.0	1776544927.010748	0.0	1.0	-1.0	-1.0	-1.0	-1.0	-1.0	-1.0	-1.0	-1.0	0.0	marker	peace	Peace	21	0418
-67864.5	-54610.74	-104111.01	-18206.37	0.0	0.0	0.0	0.0	0.0	0.0	0.0	0.0	0.0	0.0	0.0	0.0	0.0	0.0	146.13793103448276	0.0	0.0634764	-0.12719694	1.014096525	3.95234	0.03052	-1.77016	3268297.0	1776544927.010785	0.0	1.0	-1.0	-1.0	-1.0	-1.0	-1.0	-1.0	-1.0	-1.0	0.0	marker	peace	Peace	21	0418
-67782.69	-54614.34	-104039.01	-18144.63	0.0	0.0	0.0	0.0	0.0	0.0	0.0	0.0	0.0	0.0	0.0	0.0	0.0	0.0	146.13793103448276	0.0	0.0634764	-0.12719694	1.014096525	3.95234	0.03052	-1.77016	3268298.0	1776544927.010816	0.0	1.0	-1.0	-1.0	-1.0	-1.0	-1.0	-1.0	-1.0	-1.0	0.0	marker	peace	Peace	21	0418
-67939.785	-54634.634999999995	-104176.34999999999	-18303.434999999998	0.0	0.0	0.0	0.0	0.0	0.0	0.0	0.0	0.0	0.0	0.0	0.0	0.0	0.0	146.13793103448276	0.0	0.0634764	-0.12719694	1.014096525	3.95234	0.03052	-1.77016	3268299.0	1776544927.010837	0.0	1.0	-1.0	-1.0	-1.0	-1.0	-1.0	-1.0	-1.0	-1.0	0.0	marker	peace	Peace	21	0418
-68030.86499999999	-54635.445	-104289.84	-18373.725	0.0	0.0	0.0	0.0	0.0	0.0	0.0	0.0	0.0	0.0	0.0	0.0	0.0	0.0	146.13793103448276	0.0	0.06561262500000001	-0.12005584500000001	1.0156224	2.45686	-0.74774	-1.4497	3268300.0	1776544927.010859	0.0	1.0	-1.0	-1.0	-1.0	-1.0	-1.0	-1.0	-1.0	-1.0	0.0	marker	peace	Peace	21	0418
-67891.275	-54619.38	-104195.97	-18281.655	0.0	0.0	0.0	0.0	0.0	0.0	0.0	0.0	0.0	0.0	0.0	0.0	0.0	0.0	146.13793103448276	0.0	0.06561262500000001	-0.12005584500000001	1.0156224	2.45686	-0.74774	-1.4497	3268301.0	1776544927.010877	0.0	1.0	-1.0	-1.0	-1.0	-1.0	-1.0	-1.0	-1.0	-1.0	0.0	marker	peace	Peace	21	0418
-67945.68	-54642.015	-104218.11	-18293.13	0.0	0.0	0.0	0.0	0.0	0.0	0.0	0.0	0.0	0.0	0.0	0.0	0.0	0.0	146.13793103448276	0.0	0.06561262500000001	-0.12005584500000001	1.0156224	2.45686	-0.74774	-1.4497	3268302.0	1776544927.010898	0.0	1.0	-1.0	-1.0	-1.0	-1.0	-1.0	-1.0	-1.0	-1.0	0.0	marker	peace	Peace	21	0418
-67986.495	-54657.63	-104245.515	-18307.89	0.0	0.0	0.0	0.0	0.0	0.0	0.0	0.0	0.0	0.0	0.0	0.0	0.0	0.0	146.13793103448276	0.0	0.06561262500000001	-0.12005584500000001	1.0156224	2.45686	-0.74774	-1.4497	3268303.0	1776544927.010915	0.0	1.0	-1.0	-1.0	-1.0	-1.0	-1.0	-1.0	-1.0	-1.0	0.0	marker	peace	Peace	21	0418
-67981.275	-54666.225	-104228.19	-18304.02	0.0	0.0	0.0	0.0	0.0	0.0	0.0	0.0	0.0	0.0	0.0	0.0	0.0	0.0	146.13793103448276	0.0	0.06561262500000001	-0.12005584500000001	1.0156224	2.45686	-0.74774	-1.4497	3268304.0	1776544927.010936	0.0	1.0	-1.0	-1.0	-1.0	-1.0	-1.0	-1.0	-1.0	-1.0	0.0	marker	peace	Peace	21	0418
-67961.295	-54671.265	-104181.165	-18283.005	0.0	0.0	0.0	0.0	0.0	0.0	0.0	0.0	0.0	0.0	0.0	0.0	0.0	0.0	146.13793103448276	0.0	0.06561262500000001	-0.12005584500000001	1.0156224	2.45686	-0.74774	-1.4497	3268305.0	1776544927.010953	0.0	1.0	-1.0	-1.0	-1.0	-1.0	-1.0	-1.0	-1.0	-1.0	0.0	marker	peace	Peace	21	0418
-67957.83	-54679.185	-104170.23	-18265.725	0.0	0.0	0.0	0.0	0.0	0.0	0.0	0.0	0.0	0.0	0.0	0.0	0.0	0.0	146.13793103448276	0.0	0.06561262500000001	-0.12005584500000001	1.0156224	2.45686	-0.74774	-1.4497	3268306.0	1776544927.010974	0.0	1.0	-1.0	-1.0	-1.0	-1.0	-1.0	-1.0	-1.0	-1.0	0.0	marker	peace	Peace	21	0418
-67922.37	-54681.84	-104162.84999999999	-18253.079999999998	0.0	0.0	0.0	0.0	0.0	0.0	0.0	0.0	0.0	0.0	0.0	0.0	0.0	0.0	146.13793103448276	0.0	0.06561262500000001	-0.12005584500000001	1.0156224	2.45686	-0.74774	-1.4497	3268307.0	1776544927.010991	0.0	1.0	-1.0	-1.0	-1.0	-1.0	-1.0	-1.0	-1.0	-1.0	0.0	marker	peace	Peace	21	0418
-67935.105	-54677.52	-104196.59999999999	-18286.469999999998	0.0	0.0	0.0	0.0	0.0	0.0	0.0	0.0	0.0	0.0	0.0	0.0	0.0	0.0	146.13793103448276	0.0	0.06561262500000001	-0.12005584500000001	1.0156224	2.45686	-0.74774	-1.4497	3268308.0	1776544927.011011	0.0	1.0	-1.0	-1.0	-1.0	-1.0	-1.0	-1.0	-1.0	-1.0	0.0	marker	peace	Peace	21	0418
-67934.34	-54666.585	-104202.18	-18282.645	0.0	0.0	0.0	0.0	0.0	0.0	0.0	0.0	0.0	0.0	0.0	0.0	0.0	0.0	146.13793103448276	0.0	0.06561262500000001	-0.12005584500000001	1.0156224	2.45686	-0.74774	-1.4497	3268309.0	1776544927.011028	0.0	1.0	-1.0	-1.0	-1.0	-1.0	-1.0	-1.0	-1.0	-1.0	0.0	marker	peace	Peace	21	0418
-67924.89	-54653.939999999995	-104199.12	-18271.079999999998	0.0	0.0	0.0	0.0	0.0	0.0	0.0	0.0	0.0	0.0	0.0	0.0	0.0	0.0	146.13793103448276	0.0	0.06665022	-0.1196286	1.01232651	2.48738	-0.3815	-1.6785999999999999	3268310.0	1776544927.011049	0.0	1.0	-1.0	-1.0	-1.0	-1.0	-1.0	-1.0	-1.0	-1.0	0.0	marker	peace	Peace	21	0418
-67882.86	-54648.81	-104146.875	-18250.38	0.0	0.0	0.0	0.0	0.0	0.0	0.0	0.0	0.0	0.0	0.0	0.0	0.0	0.0	146.13793103448276	0.0	0.06665022	-0.1196286	1.01232651	2.48738	-0.3815	-1.6785999999999999	3268311.0	1776544927.011066	0.0	1.0	-1.0	-1.0	-1.0	-1.0	-1.0	-1.0	-1.0	-1.0	0.0	marker	peace	Peace	21	0418
-67855.005	-54648.81	-104067.0	-18220.14	0.0	0.0	0.0	0.0	0.0	0.0	0.0	0.0	0.0	0.0	0.0	0.0	0.0	0.0	146.13793103448276	0.0	0.06665022	-0.1196286	1.01232651	2.48738	-0.3815	-1.6785999999999999	3268312.0	1776544927.011086	0.0	1.0	-1.0	-1.0	-1.0	-1.0	-1.0	-1.0	-1.0	-1.0	0.0	marker	peace	Peace	21	0418
-67901.58	-54661.77	-104071.72499999999	-18229.5	0.0	0.0	0.0	0.0	0.0	0.0	0.0	0.0	0.0	0.0	0.0	0.0	0.0	0.0	146.13793103448276	0.0	0.06665022	-0.1196286	1.01232651	2.48738	-0.3815	-1.6785999999999999	3268313.0	1776544927.011104	0.0	1.0	-1.0	-1.0	-1.0	-1.0	-1.0	-1.0	-1.0	-1.0	0.0	marker	peace	Peace	21	0418
-67886.91	-54668.475	-104152.59	-18238.905	0.0	0.0	0.0	0.0	0.0	0.0	0.0	0.0	0.0	0.0	0.0	0.0	0.0	0.0	146.13793103448276	0.0	0.06665022	-0.1196286	1.01232651	2.48738	-0.3815	-1.6785999999999999	3268314.0	1776544927.011124	0.0	1.0	-1.0	-1.0	-1.0	-1.0	-1.0	-1.0	-1.0	-1.0	0.0	marker	peace	Peace	21	0418
-67908.645	-54675.81	-104221.44	-18275.309999999998	0.0	0.0	0.0	0.0	0.0	0.0	0.0	0.0	0.0	0.0	0.0	0.0	0.0	0.0	146.13793103448276	0.0	0.06665022	-0.1196286	1.01232651	2.48738	-0.3815	-1.6785999999999999	3268315.0	1776544927.01114	0.0	1.0	-1.0	-1.0	-1.0	-1.0	-1.0	-1.0	-1.0	-1.0	0.0	marker	peace	Peace	21	0418
-67952.655	-54675.99	-104175.675	-18262.71	0.0	0.0	0.0	0.0	0.0	0.0	0.0	0.0	0.0	0.0	0.0	0.0	0.0	0.0	146.13793103448276	0.0	0.06665022	-0.1196286	1.01232651	2.48738	-0.3815	-1.6785999999999999	3268316.0	1776544927.011161	0.0	1.0	-1.0	-1.0	-1.0	-1.0	-1.0	-1.0	-1.0	-1.0	0.0	marker	peace	Peace	21	0418
-67935.555	-54658.665	-104139.94499999999	-18241.29	0.0	0.0	0.0	0.0	0.0	0.0	0.0	0.0	0.0	0.0	0.0	0.0	0.0	0.0	146.13793103448276	0.0	0.06665022	-0.1196286	1.01232651	2.48738	-0.3815	-1.6785999999999999	3268317.0	1776544927.011177	0.0	1.0	-1.0	-1.0	-1.0	-1.0	-1.0	-1.0	-1.0	-1.0	0.0	marker	peace	Peace	21	0418
-67950.405	-54649.439999999995	-104181.56999999999	-18292.68	0.0	0.0	0.0	0.0	0.0	0.0	0.0	0.0	0.0	0.0	0.0	0.0	0.0	0.0	146.13793103448276	0.0	0.06665022	-0.1196286	1.01232651	2.48738	-0.3815	-1.6785999999999999	3268318.0	1776544927.011198	0.0	1.0	-1.0	-1.0	-1.0	-1.0	-1.0	-1.0	-1.0	-1.0	0.0	marker	peace	Peace	21	0418
-67928.175	-54642.869999999995	-104166.54	-18279.63	0.0	0.0	0.0	0.0	0.0	0.0	0.0	0.0	0.0	0.0	0.0	0.0	0.0	0.0	146.13793103448276	0.0	0.06665022	-0.1196286	1.01232651	2.48738	-0.3815	-1.6785999999999999	3268319.0	1776544927.011215	0.0	1.0	-1.0	-1.0	-1.0	-1.0	-1.0	-1.0	-1.0	-1.0	0.0	marker	peace	Peace	21	0418
-67894.155	-54652.905	-104144.31	-18249.03	0.0	0.0	0.0	0.0	0.0	0.0	0.0	0.0	0.0	0.0	0.0	0.0	0.0	0.0	146.13793103448276	0.0	0.068908515	-0.12176482500000001	1.010068215	2.39582	-0.35097999999999996	-1.0834599999999999	3268320.0	1776544927.011235	0.0	1.0	-1.0	-1.0	-1.0	-1.0	-1.0	-1.0	-1.0	-1.0	0.0	marker	peace	Peace	21	0418
-67922.64	-54661.77	-104158.305	-18254.114999999998	0.0	0.0	0.0	0.0	0.0	0.0	0.0	0.0	0.0	0.0	0.0	0.0	0.0	0.0	146.13793103448276	0.0	0.068908515	-0.12176482500000001	1.010068215	2.39582	-0.35097999999999996	-1.0834599999999999	3268321.0	1776544927.011252	0.0	1.0	-1.0	-1.0	-1.0	-1.0	-1.0	-1.0	-1.0	-1.0	0.0	marker	peace	Peace	21	0418
-67960.44	-54667.395	-104182.37999999999	-18260.55	0.0	0.0	0.0	0.0	0.0	0.0	0.0	0.0	0.0	0.0	0.0	0.0	0.0	0.0	146.13793103448276	0.0	0.068908515	-0.12176482500000001	1.010068215	2.39582	-0.35097999999999996	-1.0834599999999999	3268322.0	1776544927.011272	0.0	1.0	-1.0	-1.0	-1.0	-1.0	-1.0	-1.0	-1.0	-1.0	0.0	marker	peace	Peace	21	0418
-67882.14	-54670.454999999994	-104081.22	-18250.515	0.0	0.0	0.0	0.0	0.0	0.0	0.0	0.0	0.0	0.0	0.0	0.0	0.0	0.0	146.13793103448276	0.0	0.068908515	-0.12176482500000001	1.010068215	2.39582	-0.35097999999999996	-1.0834599999999999	3268323.0	1776544927.011289	0.0	1.0	-1.0	-1.0	-1.0	-1.0	-1.0	-1.0	-1.0	-1.0	0.0	marker	peace	Peace	21	0418
-67994.81999999999	-54678.42	-104195.385	-18333.675	0.0	0.0	0.0	0.0	0.0	0.0	0.0	0.0	0.0	0.0	0.0	0.0	0.0	0.0	146.13793103448276	0.0	0.068908515	-0.12176482500000001	1.010068215	2.39582	-0.35097999999999996	-1.0834599999999999	3268324.0	1776544927.011309	0.0	1.0	-1.0	-1.0	-1.0	-1.0	-1.0	-1.0	-1.0	-1.0	0.0	marker	peace	Peace	21	0418
-68007.42	-54674.595	-104228.50499999999	-18310.005	0.0	0.0	0.0	0.0	0.0	0.0	0.0	0.0	0.0	0.0	0.0	0.0	0.0	0.0	146.13793103448276	0.0	0.068908515	-0.12176482500000001	1.010068215	2.39582	-0.35097999999999996	-1.0834599999999999	3268325.0	1776544927.011326	0.0	1.0	-1.0	-1.0	-1.0	-1.0	-1.0	-1.0	-1.0	-1.0	0.0	marker	peace	Peace	21	0418
-67952.25	-54671.174999999996	-104192.415	-18304.695	0.0	0.0	0.0	0.0	0.0	0.0	0.0	0.0	0.0	0.0	0.0	0.0	0.0	0.0	146.13793103448276	0.0	0.068908515	-0.12176482500000001	1.010068215	2.39582	-0.35097999999999996	-1.0834599999999999	3268326.0	1776544927.011347	0.0	1.0	-1.0	-1.0	-1.0	-1.0	-1.0	-1.0	-1.0	-1.0	0.0	marker	peace	Peace	21	0418
-67863.015	-54667.395	-104142.825	-18246.195	0.0	0.0	0.0	0.0	0.0	0.0	0.0	0.0	0.0	0.0	0.0	0.0	0.0	0.0	146.13793103448276	0.0	0.068908515	-0.12176482500000001	1.010068215	2.39582	-0.35097999999999996	-1.0834599999999999	3268327.0	1776544927.011364	0.0	1.0	-1.0	-1.0	-1.0	-1.0	-1.0	-1.0	-1.0	-1.0	0.0	marker	peace	Peace	21	0418
-67896.36	-54671.49	-104209.875	-18241.829999999998	0.0	0.0	0.0	0.0	0.0	0.0	0.0	0.0	0.0	0.0	0.0	0.0	0.0	0.0	146.13793103448276	0.0	0.068908515	-0.12176482500000001	1.010068215	2.39582	-0.35097999999999996	-1.0834599999999999	3268328.0	1776544927.011384	0.0	1.0	-1.0	-1.0	-1.0	-1.0	-1.0	-1.0	-1.0	-1.0	0.0	marker	peace	Peace	21	0418
-67912.69499999999	-54684.765	-104223.23999999999	-18262.44	0.0	0.0	0.0	0.0	0.0	0.0	0.0	0.0	0.0	0.0	0.0	0.0	0.0	0.0	146.13793103448276	0.0	0.068908515	-0.12176482500000001	1.010068215	2.39582	-0.35097999999999996	-1.0834599999999999	3268329.0	1776544927.0114	0.0	1.0	-1.0	-1.0	-1.0	-1.0	-1.0	-1.0	-1.0	-1.0	0.0	marker	peace	Peace	21	0418
-67887.27	-54703.395	-104145.165	-18218.7	0.0	0.0	0.0	0.0	0.0	0.0	0.0	0.0	0.0	0.0	0.0	0.0	0.0	0.0	146.13793103448276	0.0	0.064025715	-0.11999481000000001	1.00988511	2.2889999999999997	-0.30519999999999997	-1.1444999999999999	3268330.0	1776544927.01142	0.0	1.0	-1.0	-1.0	-1.0	-1.0	-1.0	-1.0	-1.0	-1.0	0.0	marker	peace	Peace	21	0418
-67897.70999999999	-54715.049999999996	-104161.905	-18246.105	0.0	0.0	0.0	0.0	0.0	0.0	0.0	0.0	0.0	0.0	0.0	0.0	0.0	0.0	146.13793103448276	0.0	0.064025715	-0.11999481000000001	1.00988511	2.2889999999999997	-0.30519999999999997	-1.1444999999999999	3268331.0	1776544927.011452	0.0	1.0	-1.0	-1.0	-1.0	-1.0	-1.0	-1.0	-1.0	-1.0	0.0	marker	peace	Peace	21	0418
-67942.935	-54719.189999999995	-104207.76	-18284.309999999998	0.0	0.0	0.0	0.0	0.0	0.0	0.0	0.0	0.0	0.0	0.0	0.0	0.0	0.0	146.13793103448276	0.0	0.064025715	-0.11999481000000001	1.00988511	2.2889999999999997	-0.30519999999999997	-1.1444999999999999	3268332.0	1776544927.011476	0.0	1.0	-1.0	-1.0	-1.0	-1.0	-1.0	-1.0	-1.0	-1.0	0.0	marker	peace	Peace	21	0418
-67895.955	-54716.31	-104188.455	-18261.27	0.0	0.0	0.0	0.0	0.0	0.0	0.0	0.0	0.0	0.0	0.0	0.0	0.0	0.0	146.13793103448276	0.0	0.064025715	-0.11999481000000001	1.00988511	2.2889999999999997	-0.30519999999999997	-1.1444999999999999	3268333.0	1776544927.011493	0.0	1.0	-1.0	-1.0	-1.0	-1.0	-1.0	-1.0	-1.0	-1.0	0.0	marker	peace	Peace	21	0418
-67809.465	-54703.395	-104102.50499999999	-18187.2	0.0	0.0	0.0	0.0	0.0	0.0	0.0	0.0	0.0	0.0	0.0	0.0	0.0	0.0	146.13793103448276	0.0	0.064025715	-0.11999481000000001	1.00988511	2.2889999999999997	-0.30519999999999997	-1.1444999999999999	3268334.0	1776544927.011514	0.0	1.0	-1.0	-1.0	-1.0	-1.0	-1.0	-1.0	-1.0	-1.0	0.0	marker	peace	Peace	21	0418
-67869.18	-54689.49	-104101.83	-18209.79	0.0	0.0	0.0	0.0	0.0	0.0	0.0	0.0	0.0	0.0	0.0	0.0	0.0	0.0	146.13793103448276	0.0	0.064025715	-0.11999481000000001	1.00988511	2.2889999999999997	-0.30519999999999997	-1.1444999999999999	3268335.0	1776544927.01153	0.0	1.0	-1.0	-1.0	-1.0	-1.0	-1.0	-1.0	-1.0	-1.0	0.0	marker	peace	Peace	21	0418
-67970.655	-54681.84	-104134.815	-18296.594999999998	0.0	0.0	0.0	0.0	0.0	0.0	0.0	0.0	0.0	0.0	0.0	0.0	0.0	0.0	146.13793103448276	0.0	0.064025715	-0.11999481000000001	1.00988511	2.2889999999999997	-0.30519999999999997	-1.1444999999999999	3268336.0	1776544927.01155	0.0	1.0	-1.0	-1.0	-1.0	-1.0	-1.0	-1.0	-1.0	-1.0	0.0	marker	peace	Peace	21	0418
-67948.605	-54686.295	-104132.43	-18293.219999999998	0.0	0.0	0.0	0.0	0.0	0.0	0.0	0.0	0.0	0.0	0.0	0.0	0.0	0.0	146.13793103448276	0.0	0.064025715	-0.11999481000000001	1.00988511	2.2889999999999997	-0.30519999999999997	-1.1444999999999999	3268337.0	1776544927.011567	0.0	1.0	-1.0	-1.0	-1.0	-1.0	-1.0	-1.0	-1.0	-1.0	0.0	marker	peace	Peace	21	0418
-67959.675	-54700.829999999994	-104209.245	-18299.25	0.0	0.0	0.0	0.0	0.0	0.0	0.0	0.0	0.0	0.0	0.0	0.0	0.0	0.0	146.13793103448276	0.0	0.064025715	-0.11999481000000001	1.00988511	2.2889999999999997	-0.30519999999999997	-1.1444999999999999	3268338.0	1776544927.011587	0.0	1.0	-1.0	-1.0	-1.0	-1.0	-1.0	-1.0	-1.0	-1.0	0.0	marker	peace	Peace	21	0418
-67983.84	-54702.405	-104281.83	-18281.25	0.0	0.0	0.0	0.0	0.0	0.0	0.0	0.0	0.0	0.0	0.0	0.0	0.0	0.0	146.13793103448276	0.0	0.064025715	-0.11999481000000001	1.00988511	2.2889999999999997	-0.30519999999999997	-1.1444999999999999	3268339.0	1776544927.011604	0.0	1.0	-1.0	-1.0	-1.0	-1.0	-1.0	-1.0	-1.0	-1.0	0.0	marker	peace	Peace	21	0418
-67916.47499999999	-54695.924999999996	-104216.265	-18280.71	0.0	0.0	0.0	0.0	0.0	0.0	0.0	0.0	0.0	0.0	0.0	0.0	0.0	0.0	146.13793103448276	0.0	0.06555159	-0.11975067	1.006406115	4.059159999999999	0.8698199999999999	-1.23606	3268340.0	1776544927.011625	0.0	1.0	-1.0	-1.0	-1.0	-1.0	-1.0	-1.0	-1.0	-1.0	0.0	marker	peace	Peace	21	0418
-67876.605	-54697.095	-104113.39499999999	-18223.515	0.0	0.0	0.0	0.0	0.0	0.0	0.0	0.0	0.0	0.0	0.0	0.0	0.0	0.0	146.13793103448276	0.0	0.06555159	-0.11975067	1.006406115	4.059159999999999	0.8698199999999999	-1.23606	3268341.0	1776544927.011641	0.0	1.0	-1.0	-1.0	-1.0	-1.0	-1.0	-1.0	-1.0	-1.0	0.0	marker	peace	Peace	21	0418
-67996.665	-54698.625	-104255.14499999999	-18322.965	0.0	0.0	0.0	0.0	0.0	0.0	0.0	0.0	0.0	0.0	0.0	0.0	0.0	0.0	146.13793103448276	0.0	0.06555159	-0.11975067	1.006406115	4.059159999999999	0.8698199999999999	-1.23606	3268342.0	1776544927.011661	0.0	1.0	-1.0	-1.0	-1.0	-1.0	-1.0	-1.0	-1.0	-1.0	0.0	marker	peace	Peace	21	0418
-68005.935	-54694.079999999994	-104267.11499999999	-18348.434999999998	0.0	0.0	0.0	0.0	0.0	0.0	0.0	0.0	0.0	0.0	0.0	0.0	0.0	0.0	146.13793103448276	0.0	0.06555159	-0.11975067	1.006406115	4.059159999999999	0.8698199999999999	-1.23606	3268343.0	1776544927.011678	0.0	1.0	-1.0	-1.0	-1.0	-1.0	-1.0	-1.0	-1.0	-1.0	0.0	marker	peace	Peace	21	0418
-67900.455	-54688.68	-104176.53	-18254.969999999998	0.0	0.0	0.0	0.0	0.0	0.0	0.0	0.0	0.0	0.0	0.0	0.0	0.0	0.0	146.13793103448276	0.0	0.06555159	-0.11975067	1.006406115	4.059159999999999	0.8698199999999999	-1.23606	3268344.0	1776544927.011699	0.0	1.0	-1.0	-1.0	-1.0	-1.0	-1.0	-1.0	-1.0	-1.0	0.0	marker	peace	Peace	21	0418
-67886.235	-54690.255	-104154.165	-18251.864999999998	0.0	0.0	0.0	0.0	0.0	0.0	0.0	0.0	0.0	0.0	0.0	0.0	0.0	0.0	146.13793103448276	0.0	0.06555159	-0.11975067	1.006406115	4.059159999999999	0.8698199999999999	-1.23606	3268345.0	1776544927.011716	0.0	1.0	-1.0	-1.0	-1.0	-1.0	-1.0	-1.0	-1.0	-1.0	0.0	marker	peace	Peace	21	0418
-67926.915	-54694.439999999995	-104188.5	-18286.245	0.0	0.0	0.0	0.0	0.0	0.0	0.0	0.0	0.0	0.0	0.0	0.0	0.0	0.0	146.13793103448276	0.0	0.06555159	-0.11975067	1.006406115	4.059159999999999	0.8698199999999999	-1.23606	3268346.0	1776544927.011736	0.0	1.0	-1.0	-1.0	-1.0	-1.0	-1.0	-1.0	-1.0	-1.0	0.0	marker	peace	Peace	21	0418
-68036.58	-54709.74	-104266.89	-18340.695	0.0	0.0	0.0	0.0	0.0	0.0	0.0	0.0	0.0	0.0	0.0	0.0	0.0	0.0	146.13793103448276	0.0	0.06555159	-0.11975067	1.006406115	4.059159999999999	0.8698199999999999	-1.23606	3268347.0	1776544927.011754	0.0	1.0	-1.0	-1.0	-1.0	-1.0	-1.0	-1.0	-1.0	-1.0	0.0	marker	peace	Peace	21	0418
