ch_0	ch_1	ch_2	ch_3	ch_4	ch_5	ch_6	ch_7	ch_8	ch_9	ch_10	ch_11	ch_12	ch_13	ch_14	ch_15	ch_16	ch_17	ch_18	ch_19	ch_20	ch_21	ch_22	ch_23	ch_24	ch_25	ch_26	timestamp	marker	ch_29	ch_30	ch_31	ch_32	ch_33	ch_34	ch_35	ch_36	ch_37	ch_38	MarkerColumn	GestureLabel	CueLabel	SampleNumber	CollectionDate
-68857.38	-55454.174999999996	-104968.485	-18679.77	0.0	0.0	0.0	0.0	0.0	0.0	0.0	0.0	0.0	0.0	0.0	0.0	0.0	0.0	146.13793103448276	0.0	0.03259269	-0.047057985000000004	1.02245832	6.72966	0.10682	-0.3815	3304179.0	1776544998.892276	5.0	1.0	-1.0	-1.0	-1.0	-1.0	-1.0	-1.0	-1.0	-1.0	0.0	marker	peace	Peace	28	0418
-68759.595	-55460.204999999994	-104896.44	-18590.76	0.0	0.0	0.0	0.0	0.0	0.0	0.0	0.0	0.0	0.0	0.0	0.0	0.0	0.0	146.13793103448276	0.0	0.03259269	-0.047057985000000004	1.02245832	6.72966	0.10682	-0.3815	3304180.0	1776544998.892282	0.0	1.0	-1.0	-1.0	-1.0	-1.0	-1.0	-1.0	-1.0	-1.0	0.0	marker	peace	Peace	28	0418
-68750.19	-55459.53	-104892.39	-18586.8	0.0	0.0	0.0	0.0	0.0	0.0	0.0	0.0	0.0	0.0	0.0	0.0	0.0	0.0	146.13793103448276	0.0	0.03259269	-0.047057985000000004	1.02245832	6.72966	0.10682	-0.3815	3304181.0	1776544998.896305	0.0	1.0	-1.0	-1.0	-1.0	-1.0	-1.0	-1.0	-1.0	-1.0	0.0	marker	peace	Peace	28	0418
-68776.38	-55453.275	-104897.34	-18612.855	0.0	0.0	0.0	0.0	0.0	0.0	0.0	0.0	0.0	0.0	0.0	0.0	0.0	0.0	146.13793103448276	0.0	0.03259269	-0.047057985000000004	1.02245832	6.72966	0.10682	-0.3815	3304182.0	1776544998.89631	0.0	1.0	-1.0	-1.0	-1.0	-1.0	-1.0	-1.0	-1.0	-1.0	0.0	marker	peace	Peace	28	0418
-68733.54	-55453.095	-104899.31999999999	-18586.844999999998	0.0	0.0	0.0	0.0	0.0	0.0	0.0	0.0	0.0	0.0	0.0	0.0	0.0	0.0	146.13793103448276	0.0	0.03100578	-0.038146875000000004	1.018124835	3.9828599999999996	-0.2289	-1.2207999999999999	3304183.0	1776544998.900469	0.0	1.0	-1.0	-1.0	-1.0	-1.0	-1.0	-1.0	-1.0	-1.0	0.0	marker	peace	Peace	28	0418
-68731.2	-55454.625	-104916.69	-18590.445	0.0	0.0	0.0	0.0	0.0	0.0	0.0	0.0	0.0	0.0	0.0	0.0	0.0	0.0	146.13793103448276	0.0	0.03100578	-0.038146875000000004	1.018124835	3.9828599999999996	-0.2289	-1.2207999999999999	3304184.0	1776544998.900473	0.0	1.0	-1.0	-1.0	-1.0	-1.0	-1.0	-1.0	-1.0	-1.0	0.0	marker	peace	Peace	28	0418
-68820.255	-55469.655	-104992.37999999999	-18674.01	0.0	0.0	0.0	0.0	0.0	0.0	0.0	0.0	0.0	0.0	0.0	0.0	0.0	0.0	146.13793103448276	0.0	0.03100578	-0.038146875000000004	1.018124835	3.9828599999999996	-0.2289	-1.2207999999999999	3304185.0	1776544998.934637	0.0	1.0	-1.0	-1.0	-1.0	-1.0	-1.0	-1.0	-1.0	-1.0	0.0	marker	peace	Peace	28	0418
-68805.81	-55481.445	-104973.93	-18645.84	0.0	0.0	0.0	0.0	0.0	0.0	0.0	0.0	0.0	0.0	0.0	0.0	0.0	0.0	146.13793103448276	0.0	0.03100578	-0.038146875000000004	1.018124835	3.9828599999999996	-0.2289	-1.2207999999999999	3304186.0	1776544998.934643	0.0	1.0	-1.0	-1.0	-1.0	-1.0	-1.0	-1.0	-1.0	-1.0	0.0	marker	peace	Peace	28	0418
-68755.995	-55486.215	-104888.51999999999	-18583.02	0.0	0.0	0.0	0.0	0.0	0.0	0.0	0.0	0.0	0.0	0.0	0.0	0.0	0.0	146.13793103448276	0.0	0.03100578	-0.038146875000000004	1.018124835	3.9828599999999996	-0.2289	-1.2207999999999999	3304187.0	1776544998.934667	0.0	1.0	-1.0	-1.0	-1.0	-1.0	-1.0	-1.0	-1.0	-1.0	0.0	marker	peace	Peace	28	0418
-68730.255	-55489.68	-104871.105	-18581.399999999998	0.0	0.0	0.0	0.0	0.0	0.0	0.0	0.0	0.0	0.0	0.0	0.0	0.0	0.0	146.13793103448276	0.0	0.03100578	-0.038146875000000004	1.018124835	3.9828599999999996	-0.2289	-1.2207999999999999	3304188.0	1776544998.93467	0.0	1.0	-1.0	-1.0	-1.0	-1.0	-1.0	-1.0	-1.0	-1.0	0.0	marker	peace	Peace	28	0418
-68625.22499999999	-55477.53	-104760.495	-18460.62	0.0	0.0	0.0	0.0	0.0	0.0	0.0	0.0	0.0	0.0	0.0	0.0	0.0	0.0	146.13793103448276	0.0	0.03100578	-0.038146875000000004	1.018124835	3.9828599999999996	-0.2289	-1.2207999999999999	3304189.0	1776544998.934677	0.0	1.0	-1.0	-1.0	-1.0	-1.0	-1.0	-1.0	-1.0	-1.0	0.0	marker	peace	Peace	28	0418
-68573.34	-55468.439999999995	-104763.64499999999	-18443.114999999998	0.0	0.0	0.0	0.0	0.0	0.0	0.0	0.0	0.0	0.0	0.0	0.0	0.0	0.0	146.13793103448276	0.0	0.03100578	-0.038146875000000004	1.018124835	3.9828599999999996	-0.2289	-1.2207999999999999	3304190.0	1776544998.934681	0.0	1.0	-1.0	-1.0	-1.0	-1.0	-1.0	-1.0	-1.0	-1.0	0.0	marker	peace	Peace	28	0418
-68829.48	-55493.909999999996	-104964.65999999999	-18656.145	0.0	0.0	0.0	0.0	0.0	0.0	0.0	0.0	0.0	0.0	0.0	0.0	0.0	0.0	146.13793103448276	0.0	0.03100578	-0.038146875000000004	1.018124835	3.9828599999999996	-0.2289	-1.2207999999999999	3304191.0	1776544998.934685	0.0	1.0	-1.0	-1.0	-1.0	-1.0	-1.0	-1.0	-1.0	-1.0	0.0	marker	peace	Peace	28	0418
-68898.23999999999	-55510.47	-104990.625	-18720.719999999998	0.0	0.0	0.0	0.0	0.0	0.0	0.0	0.0	0.0	0.0	0.0	0.0	0.0	0.0	146.13793103448276	0.0	0.03100578	-0.038146875000000004	1.018124835	3.9828599999999996	-0.2289	-1.2207999999999999	3304192.0	1776544998.934688	0.0	1.0	-1.0	-1.0	-1.0	-1.0	-1.0	-1.0	-1.0	-1.0	0.0	marker	peace	Peace	28	0418
-68821.11	-55521.45	-104911.965	-18689.219999999998	0.0	0.0	0.0	0.0	0.0	0.0	0.0	0.0	0.0	0.0	0.0	0.0	0.0	0.0	146.13793103448276	0.0	0.03015129	-0.042297255	1.018857255	5.35626	-0.39676	-0.9156	3304193.0	1776544998.934692	0.0	1.0	-1.0	-1.0	-1.0	-1.0	-1.0	-1.0	-1.0	-1.0	0.0	marker	peace	Peace	28	0418
-68765.76	-55533.96	-104897.79	-18623.88	0.0	0.0	0.0	0.0	0.0	0.0	0.0	0.0	0.0	0.0	0.0	0.0	0.0	0.0	146.13793103448276	0.0	0.03015129	-0.042297255	1.018857255	5.35626	-0.39676	-0.9156	3304194.0	1776544998.934695	0.0	1.0	-1.0	-1.0	-1.0	-1.0	-1.0	-1.0	-1.0	-1.0	0.0	marker	peace	Peace	28	0418
-68774.44499999999	-55547.145	-104966.955	-18614.565	0.0	0.0	0.0	0.0	0.0	0.0	0.0	0.0	0.0	0.0	0.0	0.0	0.0	0.0	146.13793103448276	0.0	0.03015129	-0.042297255	1.018857255	5.35626	-0.39676	-0.9156	3304195.0	1776544998.934699	0.0	1.0	-1.0	-1.0	-1.0	-1.0	-1.0	-1.0	-1.0	-1.0	0.0	marker	peace	Peace	28	0418
-68778.54	-55540.845	-104922.0	-18604.26	0.0	0.0	0.0	0.0	0.0	0.0	0.0	0.0	0.0	0.0	0.0	0.0	0.0	0.0	146.13793103448276	0.0	0.03015129	-0.042297255	1.018857255	5.35626	-0.39676	-0.9156	3304196.0	1776544998.934702	0.0	1.0	-1.0	-1.0	-1.0	-1.0	-1.0	-1.0	-1.0	-1.0	0.0	marker	peace	Peace	28	0418
-68760.81	-55543.365	-104908.23	-18625.95	0.0	0.0	0.0	0.0	0.0	0.0	0.0	0.0	0.0	0.0	0.0	0.0	0.0	0.0	146.13793103448276	0.0	0.03015129	-0.042297255	1.018857255	5.35626	-0.39676	-0.9156	3304197.0	1776544998.934706	0.0	1.0	-1.0	-1.0	-1.0	-1.0	-1.0	-1.0	-1.0	-1.0	0.0	marker	peace	Peace	28	0418
-68789.88	-55557.99	-104966.86499999999	-18641.475	0.0	0.0	0.0	0.0	0.0	0.0	0.0	0.0	0.0	0.0	0.0	0.0	0.0	0.0	146.13793103448276	0.0	0.03015129	-0.042297255	1.018857255	5.35626	-0.39676	-0.9156	3304198.0	1776544998.934713	0.0	1.0	-1.0	-1.0	-1.0	-1.0	-1.0	-1.0	-1.0	-1.0	0.0	marker	peace	Peace	28	0418
-68782.23	-55555.604999999996	-104960.11499999999	-18632.61	0.0	0.0	0.0	0.0	0.0	0.0	0.0	0.0	0.0	0.0	0.0	0.0	0.0	0.0	146.13793103448276	0.0	0.03015129	-0.042297255	1.018857255	5.35626	-0.39676	-0.9156	3304199.0	1776544998.934717	0.0	1.0	-1.0	-1.0	-1.0	-1.0	-1.0	-1.0	-1.0	-1.0	0.0	marker	peace	Peace	28	0418
-68772.23999999999	-55550.61	-104958.495	-18623.7	0.0	0.0	0.0	0.0	0.0	0.0	0.0	0.0	0.0	0.0	0.0	0.0	0.0	0.0	146.13793103448276	0.0	0.03015129	-0.042297255	1.018857255	5.35626	-0.39676	-0.9156	3304200.0	1776544998.93472	0.0	1.0	-1.0	-1.0	-1.0	-1.0	-1.0	-1.0	-1.0	-1.0	0.0	marker	peace	Peace	28	0418
-68798.79	-55554.075	-105007.05	-18665.91	0.0	0.0	0.0	0.0	0.0	0.0	0.0	0.0	0.0	0.0	0.0	0.0	0.0	0.0	146.13793103448276	0.0	0.03015129	-0.042297255	1.018857255	5.35626	-0.39676	-0.9156	3304201.0	1776544998.936223	0.0	1.0	-1.0	-1.0	-1.0	-1.0	-1.0	-1.0	-1.0	-1.0	0.0	marker	peace	Peace	28	0418
-68781.015	-55551.689999999995	-104925.15	-18603.675	0.0	0.0	0.0	0.0	0.0	0.0	0.0	0.0	0.0	0.0	0.0	0.0	0.0	0.0	146.13793103448276	0.0	0.03015129	-0.042297255	1.018857255	5.35626	-0.39676	-0.9156	3304202.0	1776544998.936227	0.0	1.0	-1.0	-1.0	-1.0	-1.0	-1.0	-1.0	-1.0	-1.0	0.0	marker	peace	Peace	28	0418
-68672.565	-55538.189999999995	-104800.545	-18496.485	0.0	0.0	0.0	0.0	0.0	0.0	0.0	0.0	0.0	0.0	0.0	0.0	0.0	0.0	146.13793103448276	0.0	0.033752355	-0.042785535	1.015805505	4.25754	0.3815	-0.07629999999999999	3304203.0	1776544998.940473	0.0	1.0	-1.0	-1.0	-1.0	-1.0	-1.0	-1.0	-1.0	-1.0	0.0	marker	peace	Peace	28	0418
-68773.14	-55532.43	-104917.68	-18632.07	0.0	0.0	0.0	0.0	0.0	0.0	0.0	0.0	0.0	0.0	0.0	0.0	0.0	0.0	146.13793103448276	0.0	0.033752355	-0.042785535	1.015805505	4.25754	0.3815	-0.07629999999999999	3304204.0	1776544998.940478	0.0	1.0	-1.0	-1.0	-1.0	-1.0	-1.0	-1.0	-1.0	-1.0	0.0	marker	peace	Peace	28	0418
-68849.19	-55531.799999999996	-105019.69499999999	-18751.005	0.0	0.0	0.0	0.0	0.0	0.0	0.0	0.0	0.0	0.0	0.0	0.0	0.0	0.0	146.13793103448276	0.0	0.033752355	-0.042785535	1.015805505	4.25754	0.3815	-0.07629999999999999	3304205.0	1776544998.946381	0.0	1.0	-1.0	-1.0	-1.0	-1.0	-1.0	-1.0	-1.0	-1.0	0.0	marker	peace	Peace	28	0418
-68841.72	-55518.479999999996	-104983.425	-18681.614999999998	0.0	0.0	0.0	0.0	0.0	0.0	0.0	0.0	0.0	0.0	0.0	0.0	0.0	0.0	146.13793103448276	0.0	0.033752355	-0.042785535	1.015805505	4.25754	0.3815	-0.07629999999999999	3304206.0	1776544998.946385	0.0	1.0	-1.0	-1.0	-1.0	-1.0	-1.0	-1.0	-1.0	-1.0	0.0	marker	peace	Peace	28	0418
-68830.47	-55501.784999999996	-104960.11499999999	-18625.86	0.0	0.0	0.0	0.0	0.0	0.0	0.0	0.0	0.0	0.0	0.0	0.0	0.0	0.0	146.13793103448276	0.0	0.033752355	-0.042785535	1.015805505	4.25754	0.3815	-0.07629999999999999	3304207.0	1776544998.9494	0.0	1.0	-1.0	-1.0	-1.0	-1.0	-1.0	-1.0	-1.0	-1.0	0.0	marker	peace	Peace	28	0418
-68769.94499999999	-55495.619999999995	-104912.73	-18594.495	0.0	0.0	0.0	0.0	0.0	0.0	0.0	0.0	0.0	0.0	0.0	0.0	0.0	0.0	146.13793103448276	0.0	0.033752355	-0.042785535	1.015805505	4.25754	0.3815	-0.07629999999999999	3304208.0	1776544998.949404	0.0	1.0	-1.0	-1.0	-1.0	-1.0	-1.0	-1.0	-1.0	-1.0	0.0	marker	peace	Peace	28	0418
-68703.885	-55499.67	-104812.425	-18540.54	0.0	0.0	0.0	0.0	0.0	0.0	0.0	0.0	0.0	0.0	0.0	0.0	0.0	0.0	146.13793103448276	0.0	0.033752355	-0.042785535	1.015805505	4.25754	0.3815	-0.07629999999999999	3304209.0	1776544998.952462	0.0	1.0	-1.0	-1.0	-1.0	-1.0	-1.0	-1.0	-1.0	-1.0	0.0	marker	peace	Peace	28	0418
-68618.79	-55498.32	-104768.055	-18464.76	0.0	0.0	0.0	0.0	0.0	0.0	0.0	0.0	0.0	0.0	0.0	0.0	0.0	0.0	146.13793103448276	0.0	0.033752355	-0.042785535	1.015805505	4.25754	0.3815	-0.07629999999999999	3304210.0	1776544998.952466	0.0	1.0	-1.0	-1.0	-1.0	-1.0	-1.0	-1.0	-1.0	-1.0	0.0	marker	peace	Peace	28	0418
-68644.08	-55505.34	-104857.83	-18504.27	0.0	0.0	0.0	0.0	0.0	0.0	0.0	0.0	0.0	0.0	0.0	0.0	0.0	0.0	146.13793103448276	0.0	0.033752355	-0.042785535	1.015805505	4.25754	0.3815	-0.07629999999999999	3304211.0	1776544998.956356	0.0	1.0	-1.0	-1.0	-1.0	-1.0	-1.0	-1.0	-1.0	-1.0	0.0	marker	peace	Peace	28	0418
-68904.765	-55514.88	-105075.405	-18747.989999999998	0.0	0.0	0.0	0.0	0.0	0.0	0.0	0.0	0.0	0.0	0.0	0.0	0.0	0.0	146.13793103448276	0.0	0.033752355	-0.042785535	1.015805505	4.25754	0.3815	-0.07629999999999999	3304212.0	1776544998.95636	0.0	1.0	-1.0	-1.0	-1.0	-1.0	-1.0	-1.0	-1.0	-1.0	0.0	marker	peace	Peace	28	0418
-68878.17	-55502.145	-105034.68	-18710.82	0.0	0.0	0.0	0.0	0.0	0.0	0.0	0.0	0.0	0.0	0.0	0.0	0.0	0.0	146.13793103448276	0.0	0.038268945	-0.041320695	1.01305893	3.31142	0.50358	-0.28994	3304213.0	1776544998.966163	0.0	1.0	-1.0	-1.0	-1.0	-1.0	-1.0	-1.0	-1.0	-1.0	0.0	marker	peace	Peace	28	0418
-68781.33	-55487.52	-104923.70999999999	-18624.96	0.0	0.0	0.0	0.0	0.0	0.0	0.0	0.0	0.0	0.0	0.0	0.0	0.0	0.0	146.13793103448276	0.0	0.038268945	-0.041320695	1.01305893	3.31142	0.50358	-0.28994	3304214.0	1776544998.966167	0.0	1.0	-1.0	-1.0	-1.0	-1.0	-1.0	-1.0	-1.0	-1.0	0.0	marker	peace	Peace	28	0418
-68720.355	-55489.545	-104875.73999999999	-18601.469999999998	0.0	0.0	0.0	0.0	0.0	0.0	0.0	0.0	0.0	0.0	0.0	0.0	0.0	0.0	146.13793103448276	0.0	0.038268945	-0.041320695	1.01305893	3.31142	0.50358	-0.28994	3304215.0	1776544998.970585	0.0	1.0	-1.0	-1.0	-1.0	-1.0	-1.0	-1.0	-1.0	-1.0	0.0	marker	peace	Peace	28	0418
-68738.265	-55488.465	-104907.33	-18651.015	0.0	0.0	0.0	0.0	0.0	0.0	0.0	0.0	0.0	0.0	0.0	0.0	0.0	0.0	146.13793103448276	0.0	0.038268945	-0.041320695	1.01305893	3.31142	0.50358	-0.28994	3304216.0	1776544998.970588	0.0	1.0	-1.0	-1.0	-1.0	-1.0	-1.0	-1.0	-1.0	-1.0	0.0	marker	peace	Peace	28	0418
-68792.355	-55484.415	-104945.715	-18635.219999999998	0.0	0.0	0.0	0.0	0.0	0.0	0.0	0.0	0.0	0.0	0.0	0.0	0.0	0.0	146.13793103448276	0.0	0.038268945	-0.041320695	1.01305893	3.31142	0.50358	-0.28994	3304217.0	1776544998.970592	0.0	1.0	-1.0	-1.0	-1.0	-1.0	-1.0	-1.0	-1.0	-1.0	0.0	marker	peace	Peace	28	0418
-68785.605	-55483.244999999995	-104917.455	-18586.305	0.0	0.0	0.0	0.0	0.0	0.0	0.0	0.0	0.0	0.0	0.0	0.0	0.0	0.0	146.13793103448276	0.0	0.038268945	-0.041320695	1.01305893	3.31142	0.50358	-0.28994	3304218.0	1776544998.970595	0.0	1.0	-1.0	-1.0	-1.0	-1.0	-1.0	-1.0	-1.0	-1.0	0.0	marker	peace	Peace	28	0418
-68864.94	-55494.405	-104992.065	-18679.05	0.0	0.0	0.0	0.0	0.0	0.0	0.0	0.0	0.0	0.0	0.0	0.0	0.0	0.0	146.13793103448276	0.0	0.038268945	-0.041320695	1.01305893	3.31142	0.50358	-0.28994	3304219.0	1776544998.972451	0.0	1.0	-1.0	-1.0	-1.0	-1.0	-1.0	-1.0	-1.0	-1.0	0.0	marker	peace	Peace	28	0418
-68841.98999999999	-55499.445	-104963.76	-18662.715	0.0	0.0	0.0	0.0	0.0	0.0	0.0	0.0	0.0	0.0	0.0	0.0	0.0	0.0	146.13793103448276	0.0	0.038268945	-0.041320695	1.01305893	3.31142	0.50358	-0.28994	3304220.0	1776544998.972455	0.0	1.0	-1.0	-1.0	-1.0	-1.0	-1.0	-1.0	-1.0	-1.0	0.0	marker	peace	Peace	28	0418
-68819.67	-55491.795	-104920.515	-18636.614999999998	0.0	0.0	0.0	0.0	0.0	0.0	0.0	0.0	0.0	0.0	0.0	0.0	0.0	0.0	146.13793103448276	0.0	0.038268945	-0.041320695	1.01305893	3.31142	0.50358	-0.28994	3304221.0	1776544998.976495	0.0	1.0	-1.0	-1.0	-1.0	-1.0	-1.0	-1.0	-1.0	-1.0	0.0	marker	peace	Peace	28	0418
-68786.325	-55474.92	-104920.69499999999	-18625.905	0.0	0.0	0.0	0.0	0.0	0.0	0.0	0.0	0.0	0.0	0.0	0.0	0.0	0.0	146.13793103448276	0.0	0.038268945	-0.041320695	1.01305893	3.31142	0.50358	-0.28994	3304222.0	1776544998.976499	0.0	1.0	-1.0	-1.0	-1.0	-1.0	-1.0	-1.0	-1.0	-1.0	0.0	marker	peace	Peace	28	0418
-68742.765	-55452.645	-104922.72	-18585.719999999998	0.0	0.0	0.0	0.0	0.0	0.0	0.0	0.0	0.0	0.0	0.0	0.0	0.0	0.0	146.13793103448276	0.0	0.035949615	-0.042785535	1.012387545	2.4110799999999997	0.5341	-1.23606	3304223.0	1776544998.984467	0.0	1.0	-1.0	-1.0	-1.0	-1.0	-1.0	-1.0	-1.0	-1.0	0.0	marker	peace	Peace	28	0418
-68711.175	-55439.145	-104905.89	-18558.855	0.0	0.0	0.0	0.0	0.0	0.0	0.0	0.0	0.0	0.0	0.0	0.0	0.0	0.0	146.13793103448276	0.0	0.035949615	-0.042785535	1.012387545	2.4110799999999997	0.5341	-1.23606	3304224.0	1776544998.984471	0.0	1.0	-1.0	-1.0	-1.0	-1.0	-1.0	-1.0	-1.0	-1.0	0.0	marker	peace	Peace	28	0418
-68663.79	-55437.525	-104877.98999999999	-18536.985	0.0	0.0	0.0	0.0	0.0	0.0	0.0	0.0	0.0	0.0	0.0	0.0	0.0	0.0	146.13793103448276	0.0	0.035949615	-0.042785535	1.012387545	2.4110799999999997	0.5341	-1.23606	3304225.0	1776544998.984476	0.0	1.0	-1.0	-1.0	-1.0	-1.0	-1.0	-1.0	-1.0	-1.0	0.0	marker	peace	Peace	28	0418
-68871.51	-55452.465	-105076.75499999999	-18755.37	0.0	0.0	0.0	0.0	0.0	0.0	0.0	0.0	0.0	0.0	0.0	0.0	0.0	0.0	146.13793103448276	0.0	0.035949615	-0.042785535	1.012387545	2.4110799999999997	0.5341	-1.23606	3304226.0	1776544998.984479	0.0	1.0	-1.0	-1.0	-1.0	-1.0	-1.0	-1.0	-1.0	-1.0	0.0	marker	peace	Peace	28	0418
-68828.535	-55447.829999999994	-104973.25499999999	-18657.989999999998	0.0	0.0	0.0	0.0	0.0	0.0	0.0	0.0	0.0	0.0	0.0	0.0	0.0	0.0	146.13793103448276	0.0	0.035949615	-0.042785535	1.012387545	2.4110799999999997	0.5341	-1.23606	3304227.0	1776544998.997897	0.0	1.0	-1.0	-1.0	-1.0	-1.0	-1.0	-1.0	-1.0	-1.0	0.0	marker	peace	Peace	28	0418
-68804.86499999999	-55438.92	-104939.37	-18604.079999999998	0.0	0.0	0.0	0.0	0.0	0.0	0.0	0.0	0.0	0.0	0.0	0.0	0.0	0.0	146.13793103448276	0.0	0.035949615	-0.042785535	1.012387545	2.4110799999999997	0.5341	-1.23606	3304228.0	1776544998.997901	0.0	1.0	-1.0	-1.0	-1.0	-1.0	-1.0	-1.0	-1.0	-1.0	0.0	marker	peace	Peace	28	0418
-68825.295	-55439.28	-104998.31999999999	-18673.875	0.0	0.0	0.0	0.0	0.0	0.0	0.0	0.0	0.0	0.0	0.0	0.0	0.0	0.0	146.13793103448276	0.0	0.035949615	-0.042785535	1.012387545	2.4110799999999997	0.5341	-1.23606	3304229.0	1776544998.997905	0.0	1.0	-1.0	-1.0	-1.0	-1.0	-1.0	-1.0	-1.0	-1.0	0.0	marker	peace	Peace	28	0418
-68852.655	-55440.225	-105003.94499999999	-18675.27	0.0	0.0	0.0	0.0	0.0	0.0	0.0	0.0	0.0	0.0	0.0	0.0	0.0	0.0	146.13793103448276	0.0	0.035949615	-0.042785535	1.012387545	2.4110799999999997	0.5341	-1.23606	3304230.0	1776544998.997913	0.0	1.0	-1.0	-1.0	-1.0	-1.0	-1.0	-1.0	-1.0	-1.0	0.0	marker	peace	Peace	28	0418
-68822.64	-55432.125	-104959.44	-18649.305	0.0	0.0	0.0	0.0	0.0	0.0	0.0	0.0	0.0	0.0	0.0	0.0	0.0	0.0	146.13793103448276	0.0	0.035949615	-0.042785535	1.012387545	2.4110799999999997	0.5341	-1.23606	3304231.0	1776544998.997917	0.0	1.0	-1.0	-1.0	-1.0	-1.0	-1.0	-1.0	-1.0	-1.0	0.0	marker	peace	Peace	28	0418
-68787.765	-55424.115	-104913.405	-18615.645	0.0	0.0	0.0	0.0	0.0	0.0	0.0	0.0	0.0	0.0	0.0	0.0	0.0	0.0	146.13793103448276	0.0	0.035949615	-0.042785535	1.012387545	2.4110799999999997	0.5341	-1.23606	3304232.0	1776544998.99792	0.0	1.0	-1.0	-1.0	-1.0	-1.0	-1.0	-1.0	-1.0	-1.0	0.0	marker	peace	Peace	28	0418
-68749.515	-55422.72	-104868.765	-18576.27	0.0	0.0	0.0	0.0	0.0	0.0	0.0	0.0	0.0	0.0	0.0	0.0	0.0	0.0	146.13793103448276	0.0	0.035095125	-0.044738655	1.00988511	3.37246	1.46496	-0.6714399999999999	3304233.0	1776544999.000742	0.0	1.0	-1.0	-1.0	-1.0	-1.0	-1.0	-1.0	-1.0	-1.0	0.0	marker	peace	Peace	28	0418
-68770.08	-55424.564999999995	-104903.28	-18590.85	0.0	0.0	0.0	0.0	0.0	0.0	0.0	0.0	0.0	0.0	0.0	0.0	0.0	0.0	146.13793103448276	0.0	0.035095125	-0.044738655	1.00988511	3.37246	1.46496	-0.6714399999999999	3304234.0	1776544999.000745	0.0	1.0	-1.0	-1.0	-1.0	-1.0	-1.0	-1.0	-1.0	-1.0	0.0	marker	peace	Peace	28	0418
-68754.645	-55433.115	-104914.39499999999	-18599.355	0.0	0.0	0.0	0.0	0.0	0.0	0.0	0.0	0.0	0.0	0.0	0.0	0.0	0.0	146.13793103448276	0.0	0.035095125	-0.044738655	1.00988511	3.37246	1.46496	-0.6714399999999999	3304235.0	1776544999.005004	0.0	1.0	-1.0	-1.0	-1.0	-1.0	-1.0	-1.0	-1.0	-1.0	0.0	marker	peace	Peace	28	0418
-68754.23999999999	-55448.595	-104938.965	-18616.905	0.0	0.0	0.0	0.0	0.0	0.0	0.0	0.0	0.0	0.0	0.0	0.0	0.0	0.0	146.13793103448276	0.0	0.035095125	-0.044738655	1.00988511	3.37246	1.46496	-0.6714399999999999	3304236.0	1776544999.005008	0.0	1.0	-1.0	-1.0	-1.0	-1.0	-1.0	-1.0	-1.0	-1.0	0.0	marker	peace	Peace	28	0418
-68673.15	-55452.015	-104881.05	-18559.17	0.0	0.0	0.0	0.0	0.0	0.0	0.0	0.0	0.0	0.0	0.0	0.0	0.0	0.0	146.13793103448276	0.0	0.035095125	-0.044738655	1.00988511	3.37246	1.46496	-0.6714399999999999	3304237.0	1776544999.008731	0.0	1.0	-1.0	-1.0	-1.0	-1.0	-1.0	-1.0	-1.0	-1.0	0.0	marker	peace	Peace	28	0418
-68714.505	-55451.97	-104921.50499999999	-18600.344999999998	0.0	0.0	0.0	0.0	0.0	0.0	0.0	0.0	0.0	0.0	0.0	0.0	0.0	0.0	146.13793103448276	0.0	0.035095125	-0.044738655	1.00988511	3.37246	1.46496	-0.6714399999999999	3304238.0	1776544999.008735	0.0	1.0	-1.0	-1.0	-1.0	-1.0	-1.0	-1.0	-1.0	-1.0	0.0	marker	peace	Peace	28	0418
-68887.53	-55447.829999999994	-105032.25	-18717.57	0.0	0.0	0.0	0.0	0.0	0.0	0.0	0.0	0.0	0.0	0.0	0.0	0.0	0.0	146.13793103448276	0.0	0.035095125	-0.044738655	1.00988511	3.37246	1.46496	-0.6714399999999999	3304239.0	1776544999.013794	0.0	1.0	-1.0	-1.0	-1.0	-1.0	-1.0	-1.0	-1.0	-1.0	0.0	marker	peace	Peace	28	0418
-68855.355	-55428.299999999996	-104982.795	-18677.745	0.0	0.0	0.0	0.0	0.0	0.0	0.0	0.0	0.0	0.0	0.0	0.0	0.0	0.0	146.13793103448276	0.0	0.035095125	-0.044738655	1.00988511	3.37246	1.46496	-0.6714399999999999	3304240.0	1776544999.013798	0.0	1.0	-1.0	-1.0	-1.0	-1.0	-1.0	-1.0	-1.0	-1.0	0.0	marker	peace	Peace	28	0418
-68790.87	-55415.7	-104908.995	-18602.954999999998	0.0	0.0	0.0	0.0	0.0	0.0	0.0	0.0	0.0	0.0	0.0	0.0	0.0	0.0	146.13793103448276	0.0	0.035095125	-0.044738655	1.00988511	3.37246	1.46496	-0.6714399999999999	3304241.0	1776544999.016742	0.0	1.0	-1.0	-1.0	-1.0	-1.0	-1.0	-1.0	-1.0	-1.0	0.0	marker	peace	Peace	28	0418
-68761.935	-55405.53	-104881.40999999999	-18589.14	0.0	0.0	0.0	0.0	0.0	0.0	0.0	0.0	0.0	0.0	0.0	0.0	0.0	0.0	146.13793103448276	0.0	0.035095125	-0.044738655	1.00988511	3.37246	1.46496	-0.6714399999999999	3304242.0	1776544999.016746	0.0	1.0	-1.0	-1.0	-1.0	-1.0	-1.0	-1.0	-1.0	-1.0	0.0	marker	peace	Peace	28	0418
-68835.95999999999	-55412.505	-104924.97	-18652.094999999998	0.0	0.0	0.0	0.0	0.0	0.0	0.0	0.0	0.0	0.0	0.0	0.0	0.0	0.0	146.13793103448276	0.0	0.037780665	-0.04455555	1.010678565	2.57894	1.55652	-0.42728	3304243.0	1776544999.028831	0.0	1.0	-1.0	-1.0	-1.0	-1.0	-1.0	-1.0	-1.0	-1.0	0.0	marker	peace	Peace	28	0418
-68784.20999999999	-55420.02	-104883.03	-18602.505	0.0	0.0	0.0	0.0	0.0	0.0	0.0	0.0	0.0	0.0	0.0	0.0	0.0	0.0	146.13793103448276	0.0	0.037780665	-0.04455555	1.010678565	2.57894	1.55652	-0.42728	3304244.0	1776544999.028835	0.0	1.0	-1.0	-1.0	-1.0	-1.0	-1.0	-1.0	-1.0	-1.0	0.0	marker	peace	Peace	28	0418
-68799.19499999999	-55438.74	-104954.67	-18631.71	0.0	0.0	0.0	0.0	0.0	0.0	0.0	0.0	0.0	0.0	0.0	0.0	0.0	0.0	146.13793103448276	0.0	0.037780665	-0.04455555	1.010678565	2.57894	1.55652	-0.42728	3304245.0	1776544999.02884	0.0	1.0	-1.0	-1.0	-1.0	-1.0	-1.0	-1.0	-1.0	-1.0	0.0	marker	peace	Peace	28	0418
-68796.18	-55445.67	-104957.955	-18625.364999999998	0.0	0.0	0.0	0.0	0.0	0.0	0.0	0.0	0.0	0.0	0.0	0.0	0.0	0.0	146.13793103448276	0.0	0.037780665	-0.04455555	1.010678565	2.57894	1.55652	-0.42728	3304246.0	1776544999.028844	0.0	1.0	-1.0	-1.0	-1.0	-1.0	-1.0	-1.0	-1.0	-1.0	0.0	marker	peace	Peace	28	0418
-68781.825	-55437.795	-104958.855	-18603.855	0.0	0.0	0.0	0.0	0.0	0.0	0.0	0.0	0.0	0.0	0.0	0.0	0.0	0.0	146.13793103448276	0.0	0.037780665	-0.04455555	1.010678565	2.57894	1.55652	-0.42728	3304247.0	1776544999.028848	0.0	1.0	-1.0	-1.0	-1.0	-1.0	-1.0	-1.0	-1.0	-1.0	0.0	marker	peace	Peace	28	0418
-68714.145	-55432.439999999995	-104882.53499999999	-18570.105	0.0	0.0	0.0	0.0	0.0	0.0	0.0	0.0	0.0	0.0	0.0	0.0	0.0	0.0	146.13793103448276	0.0	0.037780665	-0.04455555	1.010678565	2.57894	1.55652	-0.42728	3304248.0	1776544999.028851	0.0	1.0	-1.0	-1.0	-1.0	-1.0	-1.0	-1.0	-1.0	-1.0	0.0	marker	peace	Peace	28	0418
-68728.59	-55434.825	-104898.105	-18586.395	0.0	0.0	0.0	0.0	0.0	0.0	0.0	0.0	0.0	0.0	0.0	0.0	0.0	0.0	146.13793103448276	0.0	0.037780665	-0.04455555	1.010678565	2.57894	1.55652	-0.42728	3304249.0	1776544999.032837	0.0	1.0	-1.0	-1.0	-1.0	-1.0	-1.0	-1.0	-1.0	-1.0	0.0	marker	peace	Peace	28	0418
-68770.305	-55440.405	-104933.295	-18622.575	0.0	0.0	0.0	0.0	0.0	0.0	0.0	0.0	0.0	0.0	0.0	0.0	0.0	0.0	146.13793103448276	0.0	0.037780665	-0.04455555	1.010678565	2.57894	1.55652	-0.42728	3304250.0	1776544999.032841	0.0	1.0	-1.0	-1.0	-1.0	-1.0	-1.0	-1.0	-1.0	-1.0	0.0	marker	peace	Peace	28	0418
-68790.105	-55447.829999999994	-104921.955	-18607.274999999998	0.0	0.0	0.0	0.0	0.0	0.0	0.0	0.0	0.0	0.0	0.0	0.0	0.0	0.0	146.13793103448276	0.0	0.037780665	-0.04455555	1.010678565	2.57894	1.55652	-0.42728	3304251.0	1776544999.036701	0.0	1.0	-1.0	-1.0	-1.0	-1.0	-1.0	-1.0	-1.0	-1.0	0.0	marker	peace	Peace	28	0418
-68772.33	-55443.104999999996	-104909.355	-18598.184999999998	0.0	0.0	0.0	0.0	0.0	0.0	0.0	0.0	0.0	0.0	0.0	0.0	0.0	0.0	146.13793103448276	0.0	0.037780665	-0.04455555	1.010678565	2.57894	1.55652	-0.42728	3304252.0	1776544999.036706	0.0	1.0	-1.0	-1.0	-1.0	-1.0	-1.0	-1.0	-1.0	-1.0	0.0	marker	peace	Peace	28	0418
-68807.295	-55445.579999999994	-104907.28499999999	-18651.645	0.0	0.0	0.0	0.0	0.0	0.0	0.0	0.0	0.0	0.0	0.0	0.0	0.0	0.0	146.13793103448276	0.0	0.029785080000000002	-0.046813845	1.02160383	3.815	0.59514	-0.9003399999999999	3304253.0	1776544999.042735	0.0	1.0	-1.0	-1.0	-1.0	-1.0	-1.0	-1.0	-1.0	-1.0	0.0	marker	peace	Peace	28	0418
-68834.79	-55453.005	-104922.45	-18684.719999999998	0.0	0.0	0.0	0.0	0.0	0.0	0.0	0.0	0.0	0.0	0.0	0.0	0.0	0.0	146.13793103448276	0.0	0.029785080000000002	-0.046813845	1.02160383	3.815	0.59514	-0.9003399999999999	3304254.0	1776544999.042739	0.0	1.0	-1.0	-1.0	-1.0	-1.0	-1.0	-1.0	-1.0	-1.0	0.0	marker	peace	Peace	28	0418
-68835.19499999999	-55457.009999999995	-104992.11	-18695.7	0.0	0.0	0.0	0.0	0.0	0.0	0.0	0.0	0.0	0.0	0.0	0.0	0.0	0.0	146.13793103448276	0.0	0.029785080000000002	-0.046813845	1.02160383	3.815	0.59514	-0.9003399999999999	3304255.0	1776544999.045606	0.0	1.0	-1.0	-1.0	-1.0	-1.0	-1.0	-1.0	-1.0	-1.0	0.0	marker	peace	Peace	28	0418
-68777.235	-55441.485	-104956.065	-18630.765	0.0	0.0	0.0	0.0	0.0	0.0	0.0	0.0	0.0	0.0	0.0	0.0	0.0	0.0	146.13793103448276	0.0	0.029785080000000002	-0.046813845	1.02160383	3.815	0.59514	-0.9003399999999999	3304256.0	1776544999.04561	0.0	1.0	-1.0	-1.0	-1.0	-1.0	-1.0	-1.0	-1.0	-1.0	0.0	marker	peace	Peace	28	0418
-68774.67	-55435.095	-104989.95	-18620.19	0.0	0.0	0.0	0.0	0.0	0.0	0.0	0.0	0.0	0.0	0.0	0.0	0.0	0.0	146.13793103448276	0.0	0.029785080000000002	-0.046813845	1.02160383	3.815	0.59514	-0.9003399999999999	3304257.0	1776544999.048848	0.0	1.0	-1.0	-1.0	-1.0	-1.0	-1.0	-1.0	-1.0	-1.0	0.0	marker	peace	Peace	28	0418
-68672.52	-55426.14	-104873.625	-18530.37	0.0	0.0	0.0	0.0	0.0	0.0	0.0	0.0	0.0	0.0	0.0	0.0	0.0	0.0	146.13793103448276	0.0	0.029785080000000002	-0.046813845	1.02160383	3.815	0.59514	-0.9003399999999999	3304258.0	1776544999.048852	0.0	1.0	-1.0	-1.0	-1.0	-1.0	-1.0	-1.0	-1.0	-1.0	0.0	marker	peace	Peace	28	0418
-68665.31999999999	-55427.985	-104839.01999999999	-18507.105	0.0	0.0	0.0	0.0	0.0	0.0	0.0	0.0	0.0	0.0	0.0	0.0	0.0	0.0	146.13793103448276	0.0	0.029785080000000002	-0.046813845	1.02160383	3.815	0.59514	-0.9003399999999999	3304259.0	1776544999.059756	0.0	1.0	-1.0	-1.0	-1.0	-1.0	-1.0	-1.0	-1.0	-1.0	0.0	marker	peace	Peace	28	0418
-68846.67	-55434.555	-104976.72	-18647.864999999998	0.0	0.0	0.0	0.0	0.0	0.0	0.0	0.0	0.0	0.0	0.0	0.0	0.0	0.0	146.13793103448276	0.0	0.029785080000000002	-0.046813845	1.02160383	3.815	0.59514	-0.9003399999999999	3304260.0	1776544999.05976	0.0	1.0	-1.0	-1.0	-1.0	-1.0	-1.0	-1.0	-1.0	-1.0	0.0	marker	peace	Peace	28	0418
-68848.73999999999	-55433.115	-105005.745	-18688.274999999998	0.0	0.0	0.0	0.0	0.0	0.0	0.0	0.0	0.0	0.0	0.0	0.0	0.0	0.0	146.13793103448276	0.0	0.029785080000000002	-0.046813845	1.02160383	3.815	0.59514	-0.9003399999999999	3304261.0	1776544999.059765	0.0	1.0	-1.0	-1.0	-1.0	-1.0	-1.0	-1.0	-1.0	-1.0	0.0	marker	peace	Peace	28	0418
-68808.465	-55422.314999999995	-104969.79	-18658.26	0.0	0.0	0.0	0.0	0.0	0.0	0.0	0.0	0.0	0.0	0.0	0.0	0.0	0.0	146.13793103448276	0.0	0.029785080000000002	-0.046813845	1.02160383	3.815	0.59514	-0.9003399999999999	3304262.0	1776544999.059768	0.0	1.0	-1.0	-1.0	-1.0	-1.0	-1.0	-1.0	-1.0	-1.0	0.0	marker	peace	Peace	28	0418
-68673.375	-55409.67	-104831.28	-18522.855	0.0	0.0	0.0	0.0	0.0	0.0	0.0	0.0	0.0	0.0	0.0	0.0	0.0	0.0	146.13793103448276	0.0	0.031127850000000002	-0.043945200000000004	1.022763495	3.52506	0.21364	-1.0834599999999999	3304263.0	1776544999.060767	0.0	1.0	-1.0	-1.0	-1.0	-1.0	-1.0	-1.0	-1.0	-1.0	0.0	marker	peace	Peace	28	0418
-68757.3	-55410.345	-104888.43	-18571.32	0.0	0.0	0.0	0.0	0.0	0.0	0.0	0.0	0.0	0.0	0.0	0.0	0.0	0.0	146.13793103448276	0.0	0.031127850000000002	-0.043945200000000004	1.022763495	3.52506	0.21364	-1.0834599999999999	3304264.0	1776544999.060771	0.0	1.0	-1.0	-1.0	-1.0	-1.0	-1.0	-1.0	-1.0	-1.0	0.0	marker	peace	Peace	28	0418
-68842.755	-55419.345	-104937.25499999999	-18621.045	0.0	0.0	0.0	0.0	0.0	0.0	0.0	0.0	0.0	0.0	0.0	0.0	0.0	0.0	146.13793103448276	0.0	0.031127850000000002	-0.043945200000000004	1.022763495	3.52506	0.21364	-1.0834599999999999	3304265.0	1776544999.064933	0.0	1.0	-1.0	-1.0	-1.0	-1.0	-1.0	-1.0	-1.0	-1.0	0.0	marker	peace	Peace	28	0418
-68840.81999999999	-55427.67	-104964.12	-18669.69	0.0	0.0	0.0	0.0	0.0	0.0	0.0	0.0	0.0	0.0	0.0	0.0	0.0	0.0	146.13793103448276	0.0	0.031127850000000002	-0.043945200000000004	1.022763495	3.52506	0.21364	-1.0834599999999999	3304266.0	1776544999.064937	0.0	1.0	-1.0	-1.0	-1.0	-1.0	-1.0	-1.0	-1.0	-1.0	0.0	marker	peace	Peace	28	0418
-68799.465	-55437.75	-104955.12	-18663.03	0.0	0.0	0.0	0.0	0.0	0.0	0.0	0.0	0.0	0.0	0.0	0.0	0.0	0.0	146.13793103448276	0.0	0.031127850000000002	-0.043945200000000004	1.022763495	3.52506	0.21364	-1.0834599999999999	3304267.0	1776544999.068977	0.0	1.0	-1.0	-1.0	-1.0	-1.0	-1.0	-1.0	-1.0	-1.0	0.0	marker	peace	Peace	28	0418
-68733.855	-55454.67	-104905.75499999999	-18577.305	0.0	0.0	0.0	0.0	0.0	0.0	0.0	0.0	0.0	0.0	0.0	0.0	0.0	0.0	146.13793103448276	0.0	0.031127850000000002	-0.043945200000000004	1.022763495	3.52506	0.21364	-1.0834599999999999	3304268.0	1776544999.068981	0.0	1.0	-1.0	-1.0	-1.0	-1.0	-1.0	-1.0	-1.0	-1.0	0.0	marker	peace	Peace	28	0418
-68783.94	-55478.115	-104948.86499999999	-18632.204999999998	0.0	0.0	0.0	0.0	0.0	0.0	0.0	0.0	0.0	0.0	0.0	0.0	0.0	0.0	146.13793103448276	0.0	0.031127850000000002	-0.043945200000000004	1.022763495	3.52506	0.21364	-1.0834599999999999	3304269.0	1776544999.072889	0.0	1.0	-1.0	-1.0	-1.0	-1.0	-1.0	-1.0	-1.0	-1.0	0.0	marker	peace	Peace	28	0418
-68746.31999999999	-55476.225	-104896.17	-18598.454999999998	0.0	0.0	0.0	0.0	0.0	0.0	0.0	0.0	0.0	0.0	0.0	0.0	0.0	0.0	146.13793103448276	0.0	0.031127850000000002	-0.043945200000000004	1.022763495	3.52506	0.21364	-1.0834599999999999	3304270.0	1776544999.072892	0.0	1.0	-1.0	-1.0	-1.0	-1.0	-1.0	-1.0	-1.0	-1.0	0.0	marker	peace	Peace	28	0418
-68818.31999999999	-55476.54	-104929.92	-18612.09	0.0	0.0	0.0	0.0	0.0	0.0	0.0	0.0	0.0	0.0	0.0	0.0	0.0	0.0	146.13793103448276	0.0	0.031127850000000002	-0.043945200000000004	1.022763495	3.52506	0.21364	-1.0834599999999999	3304271.0	1776544999.076831	0.0	1.0	-1.0	-1.0	-1.0	-1.0	-1.0	-1.0	-1.0	-1.0	0.0	marker	peace	Peace	28	0418
-68883.39	-55469.34	-104993.415	-18668.835	0.0	0.0	0.0	0.0	0.0	0.0	0.0	0.0	0.0	0.0	0.0	0.0	0.0	0.0	146.13793103448276	0.0	0.031127850000000002	-0.043945200000000004	1.022763495	3.52506	0.21364	-1.0834599999999999	3304272.0	1776544999.076835	0.0	1.0	-1.0	-1.0	-1.0	-1.0	-1.0	-1.0	-1.0	-1.0	0.0	marker	peace	Peace	28	0418
-68824.08	-55455.075	-104975.19	-18645.704999999998	0.0	0.0	0.0	0.0	0.0	0.0	0.0	0.0	0.0	0.0	0.0	0.0	0.0	0.0	146.13793103448276	0.0	0.036071685	-0.04675281	1.01659896	3.6013599999999997	0.51884	-1.25132	3304273.0	1776544999.082989	0.0	1.0	-1.0	-1.0	-1.0	-1.0	-1.0	-1.0	-1.0	-1.0	0.0	marker	peace	Peace	28	0418
-68771.88	-55440.09	-104963.805	-18612.585	0.0	0.0	0.0	0.0	0.0	0.0	0.0	0.0	0.0	0.0	0.0	0.0	0.0	0.0	146.13793103448276	0.0	0.036071685	-0.04675281	1.01659896	3.6013599999999997	0.51884	-1.25132	3304274.0	1776544999.082993	0.0	1.0	-1.0	-1.0	-1.0	-1.0	-1.0	-1.0	-1.0	-1.0	0.0	marker	peace	Peace	28	0418
-68793.75	-55452.78	-104966.325	-18657.135	0.0	0.0	0.0	0.0	0.0	0.0	0.0	0.0	0.0	0.0	0.0	0.0	0.0	0.0	146.13793103448276	0.0	0.036071685	-0.04675281	1.01659896	3.6013599999999997	0.51884	-1.25132	3304275.0	1776544999.088414	0.0	1.0	-1.0	-1.0	-1.0	-1.0	-1.0	-1.0	-1.0	-1.0	0.0	marker	peace	Peace	28	0418
-68804.145	-55473.165	-104970.06	-18687.285	0.0	0.0	0.0	0.0	0.0	0.0	0.0	0.0	0.0	0.0	0.0	0.0	0.0	0.0	146.13793103448276	0.0	0.036071685	-0.04675281	1.01659896	3.6013599999999997	0.51884	-1.25132	3304276.0	1776544999.088418	0.0	1.0	-1.0	-1.0	-1.0	-1.0	-1.0	-1.0	-1.0	-1.0	0.0	marker	peace	Peace	28	0418
-68732.955	-55475.595	-104880.19499999999	-18590.67	0.0	0.0	0.0	0.0	0.0	0.0	0.0	0.0	0.0	0.0	0.0	0.0	0.0	0.0	146.13793103448276	0.0	0.036071685	-0.04675281	1.01659896	3.6013599999999997	0.51884	-1.25132	3304277.0	1776544999.089709	0.0	1.0	-1.0	-1.0	-1.0	-1.0	-1.0	-1.0	-1.0	-1.0	0.0	marker	peace	Peace	28	0418
-68773.14	-55485.99	-104897.34	-18572.895	0.0	0.0	0.0	0.0	0.0	0.0	0.0	0.0	0.0	0.0	0.0	0.0	0.0	0.0	146.13793103448276	0.0	0.036071685	-0.04675281	1.01659896	3.6013599999999997	0.51884	-1.25132	3304278.0	1776544999.089713	0.0	1.0	-1.0	-1.0	-1.0	-1.0	-1.0	-1.0	-1.0	-1.0	0.0	marker	peace	Peace	28	0418
-68797.89	-55492.784999999996	-104914.62	-18602.55	0.0	0.0	0.0	0.0	0.0	0.0	0.0	0.0	0.0	0.0	0.0	0.0	0.0	0.0	146.13793103448276	0.0	0.036071685	-0.04675281	1.01659896	3.6013599999999997	0.51884	-1.25132	3304279.0	1776544999.092926	0.0	1.0	-1.0	-1.0	-1.0	-1.0	-1.0	-1.0	-1.0	-1.0	0.0	marker	peace	Peace	28	0418
-68699.205	-55476.585	-104854.23	-18537.524999999998	0.0	0.0	0.0	0.0	0.0	0.0	0.0	0.0	0.0	0.0	0.0	0.0	0.0	0.0	146.13793103448276	0.0	0.036071685	-0.04675281	1.01659896	3.6013599999999997	0.51884	-1.25132	3304280.0	1776544999.09293	0.0	1.0	-1.0	-1.0	-1.0	-1.0	-1.0	-1.0	-1.0	-1.0	0.0	marker	peace	Peace	28	0418
-68750.955	-55464.704999999994	-104930.19	-18606.465	0.0	0.0	0.0	0.0	0.0	0.0	0.0	0.0	0.0	0.0	0.0	0.0	0.0	0.0	146.13793103448276	0.0	0.036071685	-0.04675281	1.01659896	3.6013599999999997	0.51884	-1.25132	3304281.0	1776544999.096959	0.0	1.0	-1.0	-1.0	-1.0	-1.0	-1.0	-1.0	-1.0	-1.0	0.0	marker	peace	Peace	28	0418
-68873.355	-55465.02	-105019.065	-18699.614999999998	0.0	0.0	0.0	0.0	0.0	0.0	0.0	0.0	0.0	0.0	0.0	0.0	0.0	0.0	146.13793103448276	0.0	0.036071685	-0.04675281	1.01659896	3.6013599999999997	0.51884	-1.25132	3304282.0	1776544999.096963	0.0	1.0	-1.0	-1.0	-1.0	-1.0	-1.0	-1.0	-1.0	-1.0	0.0	marker	peace	Peace	28	0418
-68828.355	-55468.305	-104974.69499999999	-18668.52	0.0	0.0	0.0	0.0	0.0	0.0	0.0	0.0	0.0	0.0	0.0	0.0	0.0	0.0	146.13793103448276	0.0	0.032043375	-0.050109735	1.017270345	5.2646999999999995	0.32045999999999997	-1.31236	3304283.0	1776544999.101025	0.0	1.0	-1.0	-1.0	-1.0	-1.0	-1.0	-1.0	-1.0	-1.0	0.0	marker	peace	Peace	28	0418
-68815.485	-55478.79	-104936.94	-18640.305	0.0	0.0	0.0	0.0	0.0	0.0	0.0	0.0	0.0	0.0	0.0	0.0	0.0	0.0	146.13793103448276	0.0	0.032043375	-0.050109735	1.017270345	5.2646999999999995	0.32045999999999997	-1.31236	3304284.0	1776544999.101029	0.0	1.0	-1.0	-1.0	-1.0	-1.0	-1.0	-1.0	-1.0	-1.0	0.0	marker	peace	Peace	28	0418
-68812.965	-55491.93	-104952.59999999999	-18639.585	0.0	0.0	0.0	0.0	0.0	0.0	0.0	0.0	0.0	0.0	0.0	0.0	0.0	0.0	146.13793103448276	0.0	0.032043375	-0.050109735	1.017270345	5.2646999999999995	0.32045999999999997	-1.31236	3304285.0	1776544999.108472	0.0	1.0	-1.0	-1.0	-1.0	-1.0	-1.0	-1.0	-1.0	-1.0	0.0	marker	peace	Peace	28	0418
-68751.315	-55484.865	-104932.845	-18595.035	0.0	0.0	0.0	0.0	0.0	0.0	0.0	0.0	0.0	0.0	0.0	0.0	0.0	0.0	146.13793103448276	0.0	0.032043375	-0.050109735	1.017270345	5.2646999999999995	0.32045999999999997	-1.31236	3304286.0	1776544999.108476	0.0	1.0	-1.0	-1.0	-1.0	-1.0	-1.0	-1.0	-1.0	-1.0	0.0	marker	peace	Peace	28	0418
-68729.84999999999	-55483.155	-104888.06999999999	-18555.885	0.0	0.0	0.0	0.0	0.0	0.0	0.0	0.0	0.0	0.0	0.0	0.0	0.0	0.0	146.13793103448276	0.0	0.032043375	-0.050109735	1.017270345	5.2646999999999995	0.32045999999999997	-1.31236	3304287.0	1776544999.108952	0.0	1.0	-1.0	-1.0	-1.0	-1.0	-1.0	-1.0	-1.0	-1.0	0.0	marker	peace	Peace	28	0418
-68777.86499999999	-55488.915	-104928.075	-18593.64	0.0	0.0	0.0	0.0	0.0	0.0	0.0	0.0	0.0	0.0	0.0	0.0	0.0	0.0	146.13793103448276	0.0	0.032043375	-0.050109735	1.017270345	5.2646999999999995	0.32045999999999997	-1.31236	3304288.0	1776544999.108956	0.0	1.0	-1.0	-1.0	-1.0	-1.0	-1.0	-1.0	-1.0	-1.0	0.0	marker	peace	Peace	28	0418
-68738.985	-55487.655	-104882.04	-18588.42	0.0	0.0	0.0	0.0	0.0	0.0	0.0	0.0	0.0	0.0	0.0	0.0	0.0	0.0	146.13793103448276	0.0	0.032043375	-0.050109735	1.017270345	5.2646999999999995	0.32045999999999997	-1.31236	3304289.0	1776544999.113055	0.0	1.0	-1.0	-1.0	-1.0	-1.0	-1.0	-1.0	-1.0	-1.0	0.0	marker	peace	Peace	28	0418
-68837.355	-55495.845	-104941.70999999999	-18669.015	0.0	0.0	0.0	0.0	0.0	0.0	0.0	0.0	0.0	0.0	0.0	0.0	0.0	0.0	146.13793103448276	0.0	0.032043375	-0.050109735	1.017270345	5.2646999999999995	0.32045999999999997	-1.31236	3304290.0	1776544999.113059	0.0	1.0	-1.0	-1.0	-1.0	-1.0	-1.0	-1.0	-1.0	-1.0	0.0	marker	peace	Peace	28	0418
-68831.955	-55494.494999999995	-104962.14	-18662.579999999998	0.0	0.0	0.0	0.0	0.0	0.0	0.0	0.0	0.0	0.0	0.0	0.0	0.0	0.0	146.13793103448276	0.0	0.032043375	-0.050109735	1.017270345	5.2646999999999995	0.32045999999999997	-1.31236	3304291.0	1776544999.116949	0.0	1.0	-1.0	-1.0	-1.0	-1.0	-1.0	-1.0	-1.0	-1.0	0.0	marker	peace	Peace	28	0418
-68785.02	-55489.229999999996	-104949.81	-18627.12	0.0	0.0	0.0	0.0	0.0	0.0	0.0	0.0	0.0	0.0	0.0	0.0	0.0	0.0	146.13793103448276	0.0	0.032043375	-0.050109735	1.017270345	5.2646999999999995	0.32045999999999997	-1.31236	3304292.0	1776544999.116953	0.0	1.0	-1.0	-1.0	-1.0	-1.0	-1.0	-1.0	-1.0	-1.0	0.0	marker	peace	Peace	28	0418
-68730.93	-55497.284999999996	-104908.095	-18581.355	0.0	0.0	0.0	0.0	0.0	0.0	0.0	0.0	0.0	0.0	0.0	0.0	0.0	0.0	146.13793103448276	0.0	0.03076164	-0.040588275	1.01647689	4.24228	0.51884	-1.5412599999999999	3304293.0	1776544999.121133	0.0	1.0	-1.0	-1.0	-1.0	-1.0	-1.0	-1.0	-1.0	-1.0	0.0	marker	peace	Peace	28	0418
-68799.06	-55514.97	-104941.125	-18631.755	0.0	0.0	0.0	0.0	0.0	0.0	0.0	0.0	0.0	0.0	0.0	0.0	0.0	0.0	146.13793103448276	0.0	0.03076164	-0.040588275	1.01647689	4.24228	0.51884	-1.5412599999999999	3304294.0	1776544999.121137	0.0	1.0	-1.0	-1.0	-1.0	-1.0	-1.0	-1.0	-1.0	-1.0	0.0	marker	peace	Peace	28	0418
-68827.545	-55521.854999999996	-104949.81	-18644.445	0.0	0.0	0.0	0.0	0.0	0.0	0.0	0.0	0.0	0.0	0.0	0.0	0.0	0.0	146.13793103448276	0.0	0.03076164	-0.040588275	1.01647689	4.24228	0.51884	-1.5412599999999999	3304295.0	1776544999.126458	0.0	1.0	-1.0	-1.0	-1.0	-1.0	-1.0	-1.0	-1.0	-1.0	0.0	marker	peace	Peace	28	0418
-68786.595	-55528.695	-104919.93	-18620.1	0.0	0.0	0.0	0.0	0.0	0.0	0.0	0.0	0.0	0.0	0.0	0.0	0.0	0.0	146.13793103448276	0.0	0.03076164	-0.040588275	1.01647689	4.24228	0.51884	-1.5412599999999999	3304296.0	1776544999.126462	0.0	1.0	-1.0	-1.0	-1.0	-1.0	-1.0	-1.0	-1.0	-1.0	0.0	marker	peace	Peace	28	0418
-68764.275	-55526.354999999996	-104900.04	-18598.815	0.0	0.0	0.0	0.0	0.0	0.0	0.0	0.0	0.0	0.0	0.0	0.0	0.0	0.0	146.13793103448276	0.0	0.03076164	-0.040588275	1.01647689	4.24228	0.51884	-1.5412599999999999	3304297.0	1776544999.128996	0.0	1.0	-1.0	-1.0	-1.0	-1.0	-1.0	-1.0	-1.0	-1.0	0.0	marker	peace	Peace	28	0418
-68759.055	-55517.265	-104920.245	-18596.79	0.0	0.0	0.0	0.0	0.0	0.0	0.0	0.0	0.0	0.0	0.0	0.0	0.0	0.0	146.13793103448276	0.0	0.03076164	-0.040588275	1.01647689	4.24228	0.51884	-1.5412599999999999	3304298.0	1776544999.129	0.0	1.0	-1.0	-1.0	-1.0	-1.0	-1.0	-1.0	-1.0	-1.0	0.0	marker	peace	Peace	28	0418
-68766.97499999999	-55513.665	-104957.595	-18637.245	0.0	0.0	0.0	0.0	0.0	0.0	0.0	0.0	0.0	0.0	0.0	0.0	0.0	0.0	146.13793103448276	0.0	0.03076164	-0.040588275	1.01647689	4.24228	0.51884	-1.5412599999999999	3304299.0	1776544999.137817	0.0	1.0	-1.0	-1.0	-1.0	-1.0	-1.0	-1.0	-1.0	-1.0	0.0	marker	peace	Peace	28	0418
-68706.765	-55513.305	-104891.985	-18575.774999999998	0.0	0.0	0.0	0.0	0.0	0.0	0.0	0.0	0.0	0.0	0.0	0.0	0.0	0.0	146.13793103448276	0.0	0.03076164	-0.040588275	1.01647689	4.24228	0.51884	-1.5412599999999999	3304300.0	1776544999.137835	0.0	1.0	-1.0	-1.0	-1.0	-1.0	-1.0	-1.0	-1.0	-1.0	0.0	marker	peace	Peace	28	0418
-68707.215	-55518.525	-104877.045	-18549.405	0.0	0.0	0.0	0.0	0.0	0.0	0.0	0.0	0.0	0.0	0.0	0.0	0.0	0.0	146.13793103448276	0.0	0.03076164	-0.040588275	1.01647689	4.24228	0.51884	-1.5412599999999999	3304301.0	1776544999.137848	0.0	1.0	-1.0	-1.0	-1.0	-1.0	-1.0	-1.0	-1.0	-1.0	0.0	marker	peace	Peace	28	0418
-68650.425	-55512.045	-104799.87	-18467.145	0.0	0.0	0.0	0.0	0.0	0.0	0.0	0.0	0.0	0.0	0.0	0.0	0.0	0.0	146.13793103448276	0.0	0.03076164	-0.040588275	1.01647689	4.24228	0.51884	-1.5412599999999999	3304302.0	1776544999.137856	0.0	1.0	-1.0	-1.0	-1.0	-1.0	-1.0	-1.0	-1.0	-1.0	0.0	marker	peace	Peace	28	0418
-68751.135	-55518.525	-104893.425	-18568.215	0.0	0.0	0.0	0.0	0.0	0.0	0.0	0.0	0.0	0.0	0.0	0.0	0.0	0.0	146.13793103448276	0.0	0.033691320000000004	-0.04309071	1.015805505	4.28806	0.6714399999999999	-1.26658	3304303.0	1776544999.141161	0.0	1.0	-1.0	-1.0	-1.0	-1.0	-1.0	-1.0	-1.0	-1.0	0.0	marker	peace	Peace	28	0418
-68802.84	-55528.02	-104955.165	-18651.465	0.0	0.0	0.0	0.0	0.0	0.0	0.0	0.0	0.0	0.0	0.0	0.0	0.0	0.0	146.13793103448276	0.0	0.033691320000000004	-0.04309071	1.015805505	4.28806	0.6714399999999999	-1.26658	3304304.0	1776544999.141175	0.0	1.0	-1.0	-1.0	-1.0	-1.0	-1.0	-1.0	-1.0	-1.0	0.0	marker	peace	Peace	28	0418
-68805.18	-55532.07	-104946.435	-18645.57	0.0	0.0	0.0	0.0	0.0	0.0	0.0	0.0	0.0	0.0	0.0	0.0	0.0	0.0	146.13793103448276	0.0	0.033691320000000004	-0.04309071	1.015805505	4.28806	0.6714399999999999	-1.26658	3304305.0	1776544999.145184	0.0	1.0	-1.0	-1.0	-1.0	-1.0	-1.0	-1.0	-1.0	-1.0	0.0	marker	peace	Peace	28	0418
-68833.935	-55540.71	-104944.23	-18634.77	0.0	0.0	0.0	0.0	0.0	0.0	0.0	0.0	0.0	0.0	0.0	0.0	0.0	0.0	146.13793103448276	0.0	0.033691320000000004	-0.04309071	1.015805505	4.28806	0.6714399999999999	-1.26658	3304306.0	1776544999.14521	0.0	1.0	-1.0	-1.0	-1.0	-1.0	-1.0	-1.0	-1.0	-1.0	0.0	marker	peace	Peace	28	0418
-68805.405	-55541.655	-104921.14499999999	-18631.844999999998	0.0	0.0	0.0	0.0	0.0	0.0	0.0	0.0	0.0	0.0	0.0	0.0	0.0	0.0	146.13793103448276	0.0	0.033691320000000004	-0.04309071	1.015805505	4.28806	0.6714399999999999	-1.26658	3304307.0	1776544999.154284	0.0	1.0	-1.0	-1.0	-1.0	-1.0	-1.0	-1.0	-1.0	-1.0	0.0	marker	peace	Peace	28	0418
-68780.61	-55532.115	-104908.59	-18618.84	0.0	0.0	0.0	0.0	0.0	0.0	0.0	0.0	0.0	0.0	0.0	0.0	0.0	0.0	146.13793103448276	0.0	0.033691320000000004	-0.04309071	1.015805505	4.28806	0.6714399999999999	-1.26658	3304308.0	1776544999.154301	0.0	1.0	-1.0	-1.0	-1.0	-1.0	-1.0	-1.0	-1.0	-1.0	0.0	marker	peace	Peace	28	0418
-68805.675	-55527.255	-104962.455	-18632.79	0.0	0.0	0.0	0.0	0.0	0.0	0.0	0.0	0.0	0.0	0.0	0.0	0.0	0.0	146.13793103448276	0.0	0.033691320000000004	-0.04309071	1.015805505	4.28806	0.6714399999999999	-1.26658	3304309.0	1776544999.154319	0.0	1.0	-1.0	-1.0	-1.0	-1.0	-1.0	-1.0	-1.0	-1.0	0.0	marker	peace	Peace	28	0418
-68814.495	-55522.079999999994	-104988.23999999999	-18659.204999999998	0.0	0.0	0.0	0.0	0.0	0.0	0.0	0.0	0.0	0.0	0.0	0.0	0.0	0.0	146.13793103448276	0.0	0.033691320000000004	-0.04309071	1.015805505	4.28806	0.6714399999999999	-1.26658	3304310.0	1776544999.154333	0.0	1.0	-1.0	-1.0	-1.0	-1.0	-1.0	-1.0	-1.0	-1.0	0.0	marker	peace	Peace	28	0418
-68811.39	-55518.93	-104982.525	-18672.3	0.0	0.0	0.0	0.0	0.0	0.0	0.0	0.0	0.0	0.0	0.0	0.0	0.0	0.0	146.13793103448276	0.0	0.033691320000000004	-0.04309071	1.015805505	4.28806	0.6714399999999999	-1.26658	3304311.0	1776544999.157277	0.0	1.0	-1.0	-1.0	-1.0	-1.0	-1.0	-1.0	-1.0	-1.0	0.0	marker	peace	Peace	28	0418
-68784.03	-55526.22	-104931.81	-18630.45	0.0	0.0	0.0	0.0	0.0	0.0	0.0	0.0	0.0	0.0	0.0	0.0	0.0	0.0	146.13793103448276	0.0	0.033691320000000004	-0.04309071	1.015805505	4.28806	0.6714399999999999	-1.26658	3304312.0	1776544999.157302	0.0	1.0	-1.0	-1.0	-1.0	-1.0	-1.0	-1.0	-1.0	-1.0	0.0	marker	peace	Peace	28	0418
-68753.97	-55536.704999999994	-104902.92	-18583.29	0.0	0.0	0.0	0.0	0.0	0.0	0.0	0.0	0.0	0.0	0.0	0.0	0.0	0.0	146.13793103448276	0.0	0.034606845	-0.04284657	1.01244858	3.69292	1.2818399999999999	-1.77016	3304313.0	1776544999.16129	0.0	1.0	-1.0	-1.0	-1.0	-1.0	-1.0	-1.0	-1.0	-1.0	0.0	marker	peace	Peace	28	0418
-68783.175	-55535.04	-104932.34999999999	-18617.219999999998	0.0	0.0	0.0	0.0	0.0	0.0	0.0	0.0	0.0	0.0	0.0	0.0	0.0	0.0	146.13793103448276	0.0	0.034606845	-0.04284657	1.01244858	3.69292	1.2818399999999999	-1.77016	3304314.0	1776544999.161304	0.0	1.0	-1.0	-1.0	-1.0	-1.0	-1.0	-1.0	-1.0	-1.0	0.0	marker	peace	Peace	28	0418
-68836.95	-55529.009999999995	-104954.22	-18671.625	0.0	0.0	0.0	0.0	0.0	0.0	0.0	0.0	0.0	0.0	0.0	0.0	0.0	0.0	146.13793103448276	0.0	0.034606845	-0.04284657	1.01244858	3.69292	1.2818399999999999	-1.77016	3304315.0	1776544999.165313	0.0	1.0	-1.0	-1.0	-1.0	-1.0	-1.0	-1.0	-1.0	-1.0	0.0	marker	peace	Peace	28	0418
-68745.915	-55517.04	-104869.44	-18583.829999999998	0.0	0.0	0.0	0.0	0.0	0.0	0.0	0.0	0.0	0.0	0.0	0.0	0.0	0.0	146.13793103448276	0.0	0.034606845	-0.04284657	1.01244858	3.69292	1.2818399999999999	-1.77016	3304316.0	1776544999.165325	0.0	1.0	-1.0	-1.0	-1.0	-1.0	-1.0	-1.0	-1.0	-1.0	0.0	marker	peace	Peace	28	0418
-68715.63	-55505.744999999995	-104919.795	-18566.415	0.0	0.0	0.0	0.0	0.0	0.0	0.0	0.0	0.0	0.0	0.0	0.0	0.0	0.0	146.13793103448276	0.0	0.034606845	-0.04284657	1.01244858	3.69292	1.2818399999999999	-1.77016	3304317.0	1776544999.173789	0.0	1.0	-1.0	-1.0	-1.0	-1.0	-1.0	-1.0	-1.0	-1.0	0.0	marker	peace	Peace	28	0418
-68722.29	-55510.965	-104933.43	-18592.2	0.0	0.0	0.0	0.0	0.0	0.0	0.0	0.0	0.0	0.0	0.0	0.0	0.0	0.0	146.13793103448276	0.0	0.034606845	-0.04284657	1.01244858	3.69292	1.2818399999999999	-1.77016	3304318.0	1776544999.173807	0.0	1.0	-1.0	-1.0	-1.0	-1.0	-1.0	-1.0	-1.0	-1.0	0.0	marker	peace	Peace	28	0418
-68776.56	-55519.74	-104909.4	-18593.64	0.0	0.0	0.0	0.0	0.0	0.0	0.0	0.0	0.0	0.0	0.0	0.0	0.0	0.0	146.13793103448276	0.0	0.034606845	-0.04284657	1.01244858	3.69292	1.2818399999999999	-1.77016	3304319.0	1776544999.173824	0.0	1.0	-1.0	-1.0	-1.0	-1.0	-1.0	-1.0	-1.0	-1.0	0.0	marker	peace	Peace	28	0418
-68777.145	-55521.63	-104863.40999999999	-18557.864999999998	0.0	0.0	0.0	0.0	0.0	0.0	0.0	0.0	0.0	0.0	0.0	0.0	0.0	0.0	146.13793103448276	0.0	0.034606845	-0.04284657	1.01244858	3.69292	1.2818399999999999	-1.77016	3304320.0	1776544999.173835	0.0	1.0	-1.0	-1.0	-1.0	-1.0	-1.0	-1.0	-1.0	-1.0	0.0	marker	peace	Peace	28	0418
-68711.08499999999	-55516.814999999995	-104823.495	-18535.094999999998	0.0	0.0	0.0	0.0	0.0	0.0	0.0	0.0	0.0	0.0	0.0	0.0	0.0	0.0	146.13793103448276	0.0	0.034606845	-0.04284657	1.01244858	3.69292	1.2818399999999999	-1.77016	3304321.0	1776544999.177377	0.0	1.0	-1.0	-1.0	-1.0	-1.0	-1.0	-1.0	-1.0	-1.0	0.0	marker	peace	Peace	28	0418
-68835.465	-55521.134999999995	-104967.36	-18659.925	0.0	0.0	0.0	0.0	0.0	0.0	0.0	0.0	0.0	0.0	0.0	0.0	0.0	0.0	146.13793103448276	0.0	0.034606845	-0.04284657	1.01244858	3.69292	1.2818399999999999	-1.77016	3304322.0	1776544999.177412	0.0	1.0	-1.0	-1.0	-1.0	-1.0	-1.0	-1.0	-1.0	-1.0	0.0	marker	peace	Peace	28	0418
-68808.87	-55517.579999999994	-104952.555	-18635.13	0.0	0.0	0.0	0.0	0.0	0.0	0.0	0.0	0.0	0.0	0.0	0.0	0.0	0.0	146.13793103448276	0.0	0.03247062	-0.04455555	1.01647689	3.79974	1.03768	-2.19744	3304323.0	1776544999.181258	0.0	1.0	-1.0	-1.0	-1.0	-1.0	-1.0	-1.0	-1.0	-1.0	0.0	marker	peace	Peace	28	0418
-68797.395	-55523.07	-104987.295	-18655.2	0.0	0.0	0.0	0.0	0.0	0.0	0.0	0.0	0.0	0.0	0.0	0.0	0.0	0.0	146.13793103448276	0.0	0.03247062	-0.04455555	1.01647689	3.79974	1.03768	-2.19744	3304324.0	1776544999.18127	0.0	1.0	-1.0	-1.0	-1.0	-1.0	-1.0	-1.0	-1.0	-1.0	0.0	marker	peace	Peace	28	0418
-68811.03	-55537.604999999996	-105008.94	-18671.985	0.0	0.0	0.0	0.0	0.0	0.0	0.0	0.0	0.0	0.0	0.0	0.0	0.0	0.0	146.13793103448276	0.0	0.03247062	-0.04455555	1.01647689	3.79974	1.03768	-2.19744	3304325.0	1776544999.185294	0.0	1.0	-1.0	-1.0	-1.0	-1.0	-1.0	-1.0	-1.0	-1.0	0.0	marker	peace	Peace	28	0418
-68814.54	-55543.049999999996	-104956.37999999999	-18635.399999999998	0.0	0.0	0.0	0.0	0.0	0.0	0.0	0.0	0.0	0.0	0.0	0.0	0.0	0.0	146.13793103448276	0.0	0.03247062	-0.04455555	1.01647689	3.79974	1.03768	-2.19744	3304326.0	1776544999.185322	0.0	1.0	-1.0	-1.0	-1.0	-1.0	-1.0	-1.0	-1.0	-1.0	0.0	marker	peace	Peace	28	0418
-68799.59999999999	-55545.57	-104906.295	-18606.329999999998	0.0	0.0	0.0	0.0	0.0	0.0	0.0	0.0	0.0	0.0	0.0	0.0	0.0	0.0	146.13793103448276	0.0	0.03247062	-0.04455555	1.01647689	3.79974	1.03768	-2.19744	3304327.0	1776544999.189334	0.0	1.0	-1.0	-1.0	-1.0	-1.0	-1.0	-1.0	-1.0	-1.0	0.0	marker	peace	Peace	28	0418
-68806.89	-55548.045	-104964.435	-18659.565	0.0	0.0	0.0	0.0	0.0	0.0	0.0	0.0	0.0	0.0	0.0	0.0	0.0	0.0	146.13793103448276	0.0	0.03247062	-0.04455555	1.01647689	3.79974	1.03768	-2.19744	3304328.0	1776544999.189357	0.0	1.0	-1.0	-1.0	-1.0	-1.0	-1.0	-1.0	-1.0	-1.0	0.0	marker	peace	Peace	28	0418
-68819.22	-55540.575	-104994.94499999999	-18676.035	0.0	0.0	0.0	0.0	0.0	0.0	0.0	0.0	0.0	0.0	0.0	0.0	0.0	0.0	146.13793103448276	0.0	0.03247062	-0.04455555	1.01647689	3.79974	1.03768	-2.19744	3304329.0	1776544999.193368	0.0	1.0	-1.0	-1.0	-1.0	-1.0	-1.0	-1.0	-1.0	-1.0	0.0	marker	peace	Peace	28	0418
-68774.44499999999	-55526.085	-104928.165	-18624.149999999998	0.0	0.0	0.0	0.0	0.0	0.0	0.0	0.0	0.0	0.0	0.0	0.0	0.0	0.0	146.13793103448276	0.0	0.03247062	-0.04455555	1.01647689	3.79974	1.03768	-2.19744	3304330.0	1776544999.193399	0.0	1.0	-1.0	-1.0	-1.0	-1.0	-1.0	-1.0	-1.0	-1.0	0.0	marker	peace	Peace	28	0418
-68828.985	-55514.564999999995	-104945.44499999999	-18631.62	0.0	0.0	0.0	0.0	0.0	0.0	0.0	0.0	0.0	0.0	0.0	0.0	0.0	0.0	146.13793103448276	0.0	0.03247062	-0.04455555	1.01647689	3.79974	1.03768	-2.19744	3304331.0	1776544999.19732	0.0	1.0	-1.0	-1.0	-1.0	-1.0	-1.0	-1.0	-1.0	-1.0	0.0	marker	peace	Peace	28	0418
-68834.34	-55504.71	-104964.165	-18634.815	0.0	0.0	0.0	0.0	0.0	0.0	0.0	0.0	0.0	0.0	0.0	0.0	0.0	0.0	146.13793103448276	0.0	0.03247062	-0.04455555	1.01647689	3.79974	1.03768	-2.19744	3304332.0	1776544999.197352	0.0	1.0	-1.0	-1.0	-1.0	-1.0	-1.0	-1.0	-1.0	-1.0	0.0	marker	peace	Peace	28	0418
-68793.165	-55533.465	-104926.31999999999	-18603.945	0.0	0.0	0.0	0.0	0.0	0.0	0.0	0.0	0.0	0.0	0.0	0.0	0.0	0.0	146.13793103448276	0.0	0.032348550000000004	-0.04943835	1.01476791	6.24134	1.32762	-2.91466	3304333.0	1776544999.201379	0.0	1.0	-1.0	-1.0	-1.0	-1.0	-1.0	-1.0	-1.0	-1.0	0.0	marker	peace	Peace	28	0418
-68778.765	-55581.03	-104920.47	-18596.07	0.0	0.0	0.0	0.0	0.0	0.0	0.0	0.0	0.0	0.0	0.0	0.0	0.0	0.0	146.13793103448276	0.0	0.032348550000000004	-0.04943835	1.01476791	6.24134	1.32762	-2.91466	3304334.0	1776544999.201408	0.0	1.0	-1.0	-1.0	-1.0	-1.0	-1.0	-1.0	-1.0	-1.0	0.0	marker	peace	Peace	28	0418
-68777.19	-55593.18	-104897.83499999999	-18585.989999999998	0.0	0.0	0.0	0.0	0.0	0.0	0.0	0.0	0.0	0.0	0.0	0.0	0.0	0.0	146.13793103448276	0.0	0.032348550000000004	-0.04943835	1.01476791	6.24134	1.32762	-2.91466	3304335.0	1776544999.205283	0.0	1.0	-1.0	-1.0	-1.0	-1.0	-1.0	-1.0	-1.0	-1.0	0.0	marker	peace	Peace	28	0418
-68722.65	-55592.729999999996	-104874.39	-18562.14	0.0	0.0	0.0	0.0	0.0	0.0	0.0	0.0	0.0	0.0	0.0	0.0	0.0	0.0	146.13793103448276	0.0	0.032348550000000004	-0.04943835	1.01476791	6.24134	1.32762	-2.91466	3304336.0	1776544999.205304	0.0	1.0	-1.0	-1.0	-1.0	-1.0	-1.0	-1.0	-1.0	-1.0	0.0	marker	peace	Peace	28	0418
-68682.78	-55571.985	-104855.67	-18554.94	0.0	0.0	0.0	0.0	0.0	0.0	0.0	0.0	0.0	0.0	0.0	0.0	0.0	0.0	146.13793103448276	0.0	0.032348550000000004	-0.04943835	1.01476791	6.24134	1.32762	-2.91466	3304337.0	1776544999.209405	0.0	1.0	-1.0	-1.0	-1.0	-1.0	-1.0	-1.0	-1.0	-1.0	0.0	marker	peace	Peace	28	0418
-68788.665	-55563.21	-104873.805	-18629.37	0.0	0.0	0.0	0.0	0.0	0.0	0.0	0.0	0.0	0.0	0.0	0.0	0.0	0.0	146.13793103448276	0.0	0.032348550000000004	-0.04943835	1.01476791	6.24134	1.32762	-2.91466	3304338.0	1776544999.20943	0.0	1.0	-1.0	-1.0	-1.0	-1.0	-1.0	-1.0	-1.0	-1.0	0.0	marker	peace	Peace	28	0418
-68786.505	-55557.134999999995	-104909.31	-18614.52	0.0	0.0	0.0	0.0	0.0	0.0	0.0	0.0	0.0	0.0	0.0	0.0	0.0	0.0	146.13793103448276	0.0	0.032348550000000004	-0.04943835	1.01476791	6.24134	1.32762	-2.91466	3304339.0	1776544999.213366	0.0	1.0	-1.0	-1.0	-1.0	-1.0	-1.0	-1.0	-1.0	-1.0	0.0	marker	peace	Peace	28	0418
-68802.12	-55556.369999999995	-104930.73	-18601.29	0.0	0.0	0.0	0.0	0.0	0.0	0.0	0.0	0.0	0.0	0.0	0.0	0.0	0.0	146.13793103448276	0.0	0.032348550000000004	-0.04943835	1.01476791	6.24134	1.32762	-2.91466	3304340.0	1776544999.213389	0.0	1.0	-1.0	-1.0	-1.0	-1.0	-1.0	-1.0	-1.0	-1.0	0.0	marker	peace	Peace	28	0418
-68788.62	-55554.84	-104936.355	-18605.88	0.0	0.0	0.0	0.0	0.0	0.0	0.0	0.0	0.0	0.0	0.0	0.0	0.0	0.0	146.13793103448276	0.0	0.032348550000000004	-0.04943835	1.01476791	6.24134	1.32762	-2.91466	3304341.0	1776544999.217408	0.0	1.0	-1.0	-1.0	-1.0	-1.0	-1.0	-1.0	-1.0	-1.0	0.0	marker	peace	Peace	28	0418
-68806.035	-55562.759999999995	-104988.915	-18665.28	0.0	0.0	0.0	0.0	0.0	0.0	0.0	0.0	0.0	0.0	0.0	0.0	0.0	0.0	146.13793103448276	0.0	0.032348550000000004	-0.04943835	1.01476791	6.24134	1.32762	-2.91466	3304342.0	1776544999.217436	0.0	1.0	-1.0	-1.0	-1.0	-1.0	-1.0	-1.0	-1.0	-1.0	0.0	marker	peace	Peace	28	0418
-68813.91	-55582.244999999995	-104994.855	-18661.364999999998	0.0	0.0	0.0	0.0	0.0	0.0	0.0	0.0	0.0	0.0	0.0	0.0	0.0	0.0	146.13793103448276	0.0	0.03100578	-0.038879295	1.02099348	4.715339999999999	0.82404	-1.09872	3304343.0	1776544999.221446	0.0	1.0	-1.0	-1.0	-1.0	-1.0	-1.0	-1.0	-1.0	-1.0	0.0	marker	peace	Peace	28	0418
-68811.885	-55591.47	-104982.61499999999	-18664.605	0.0	0.0	0.0	0.0	0.0	0.0	0.0	0.0	0.0	0.0	0.0	0.0	0.0	0.0	146.13793103448276	0.0	0.03100578	-0.038879295	1.02099348	4.715339999999999	0.82404	-1.09872	3304344.0	1776544999.22147	0.0	1.0	-1.0	-1.0	-1.0	-1.0	-1.0	-1.0	-1.0	-1.0	0.0	marker	peace	Peace	28	0418
-68792.895	-55603.439999999995	-104956.47	-18628.695	0.0	0.0	0.0	0.0	0.0	0.0	0.0	0.0	0.0	0.0	0.0	0.0	0.0	0.0	146.13793103448276	0.0	0.03100578	-0.038879295	1.02099348	4.715339999999999	0.82404	-1.09872	3304345.0	1776544999.225355	0.0	1.0	-1.0	-1.0	-1.0	-1.0	-1.0	-1.0	-1.0	-1.0	0.0	marker	peace	Peace	28	0418
-68818.995	-55612.395	-104956.155	-18638.37	0.0	0.0	0.0	0.0	0.0	0.0	0.0	0.0	0.0	0.0	0.0	0.0	0.0	0.0	146.13793103448276	0.0	0.03100578	-0.038879295	1.02099348	4.715339999999999	0.82404	-1.09872	3304346.0	1776544999.225377	0.0	1.0	-1.0	-1.0	-1.0	-1.0	-1.0	-1.0	-1.0	-1.0	0.0	marker	peace	Peace	28	0418
-68808.87	-55606.814999999995	-104924.7	-18616.905	0.0	0.0	0.0	0.0	0.0	0.0	0.0	0.0	0.0	0.0	0.0	0.0	0.0	0.0	146.13793103448276	0.0	0.03100578	-0.038879295	1.02099348	4.715339999999999	0.82404	-1.09872	3304347.0	1776544999.229353	0.0	1.0	-1.0	-1.0	-1.0	-1.0	-1.0	-1.0	-1.0	-1.0	0.0	marker	peace	Peace	28	0418
-68814.22499999999	-55606.86	-104907.23999999999	-18610.02	0.0	0.0	0.0	0.0	0.0	0.0	0.0	0.0	0.0	0.0	0.0	0.0	0.0	0.0	146.13793103448276	0.0	0.03100578	-0.038879295	1.02099348	4.715339999999999	0.82404	-1.09872	3304348.0	1776544999.229374	0.0	1.0	-1.0	-1.0	-1.0	-1.0	-1.0	-1.0	-1.0	-1.0	0.0	marker	peace	Peace	28	0418
-68788.17	-55612.17	-104922.315	-18632.204999999998	0.0	0.0	0.0	0.0	0.0	0.0	0.0	0.0	0.0	0.0	0.0	0.0	0.0	0.0	146.13793103448276	0.0	0.03100578	-0.038879295	1.02099348	4.715339999999999	0.82404	-1.09872	3304349.0	1776544999.233531	0.0	1.0	-1.0	-1.0	-1.0	-1.0	-1.0	-1.0	-1.0	-1.0	0.0	marker	peace	Peace	28	0418
-68771.11499999999	-55617.435	-104951.97	-18628.02	0.0	0.0	0.0	0.0	0.0	0.0	0.0	0.0	0.0	0.0	0.0	0.0	0.0	0.0	146.13793103448276	0.0	0.03100578	-0.038879295	1.02099348	4.715339999999999	0.82404	-1.09872	3304350.0	1776544999.233585	0.0	1.0	-1.0	-1.0	-1.0	-1.0	-1.0	-1.0	-1.0	-1.0	0.0	marker	peace	Peace	28	0418
-68766.255	-55619.055	-104963.265	-18617.895	0.0	0.0	0.0	0.0	0.0	0.0	0.0	0.0	0.0	0.0	0.0	0.0	0.0	0.0	146.13793103448276	0.0	0.03100578	-0.038879295	1.02099348	4.715339999999999	0.82404	-1.09872	3304351.0	1776544999.237412	0.0	1.0	-1.0	-1.0	-1.0	-1.0	-1.0	-1.0	-1.0	-1.0	0.0	marker	peace	Peace	28	0418
-68691.87	-55612.71	-104887.845	-18544.094999999998	0.0	0.0	0.0	0.0	0.0	0.0	0.0	0.0	0.0	0.0	0.0	0.0	0.0	0.0	146.13793103448276	0.0	0.03100578	-0.038879295	1.02099348	4.715339999999999	0.82404	-1.09872	3304352.0	1776544999.237436	0.0	1.0	-1.0	-1.0	-1.0	-1.0	-1.0	-1.0	-1.0	-1.0	0.0	marker	peace	Peace	28	0418
-68663.295	-55605.915	-104823.405	-18504.27	0.0	0.0	0.0	0.0	0.0	0.0	0.0	0.0	0.0	0.0	0.0	0.0	0.0	0.0	146.13793103448276	0.0	0.02539056	-0.034606845	1.025449035	4.28806	0.47306	-1.89224	3304353.0	1776544999.241422	0.0	1.0	-1.0	-1.0	-1.0	-1.0	-1.0	-1.0	-1.0	-1.0	0.0	marker	peace	Peace	28	0418
-68833.53	-55616.085	-104953.31999999999	-18646.335	0.0	0.0	0.0	0.0	0.0	0.0	0.0	0.0	0.0	0.0	0.0	0.0	0.0	0.0	146.13793103448276	0.0	0.02539056	-0.034606845	1.025449035	4.28806	0.47306	-1.89224	3304354.0	1776544999.241443	0.0	1.0	-1.0	-1.0	-1.0	-1.0	-1.0	-1.0	-1.0	-1.0	0.0	marker	peace	Peace	28	0418
-68826.555	-55616.895	-104940.94499999999	-18646.559999999998	0.0	0.0	0.0	0.0	0.0	0.0	0.0	0.0	0.0	0.0	0.0	0.0	0.0	0.0	146.13793103448276	0.0	0.02539056	-0.034606845	1.025449035	4.28806	0.47306	-1.89224	3304355.0	1776544999.247502	0.0	1.0	-1.0	-1.0	-1.0	-1.0	-1.0	-1.0	-1.0	-1.0	0.0	marker	peace	Peace	28	0418
-68823.09	-55613.52	-104924.43	-18667.89	0.0	0.0	0.0	0.0	0.0	0.0	0.0	0.0	0.0	0.0	0.0	0.0	0.0	0.0	146.13793103448276	0.0	0.02539056	-0.034606845	1.025449035	4.28806	0.47306	-1.89224	3304356.0	1776544999.247526	0.0	1.0	-1.0	-1.0	-1.0	-1.0	-1.0	-1.0	-1.0	-1.0	0.0	marker	peace	Peace	28	0418
-68804.415	-55620.9	-104909.805	-18629.37	0.0	0.0	0.0	0.0	0.0	0.0	0.0	0.0	0.0	0.0	0.0	0.0	0.0	0.0	146.13793103448276	0.0	0.02539056	-0.034606845	1.025449035	4.28806	0.47306	-1.89224	3304357.0	1776544999.250434	0.0	1.0	-1.0	-1.0	-1.0	-1.0	-1.0	-1.0	-1.0	-1.0	0.0	marker	peace	Peace	28	0418
-68774.31	-55627.515	-104975.37	-18625.725	0.0	0.0	0.0	0.0	0.0	0.0	0.0	0.0	0.0	0.0	0.0	0.0	0.0	0.0	146.13793103448276	0.0	0.02539056	-0.034606845	1.025449035	4.28806	0.47306	-1.89224	3304358.0	1776544999.250456	0.0	1.0	-1.0	-1.0	-1.0	-1.0	-1.0	-1.0	-1.0	-1.0	0.0	marker	peace	Peace	28	0418
-68797.8	-55616.85	-104975.325	-18604.17	0.0	0.0	0.0	0.0	0.0	0.0	0.0	0.0	0.0	0.0	0.0	0.0	0.0	0.0	146.13793103448276	0.0	0.02539056	-0.034606845	1.025449035	4.28806	0.47306	-1.89224	3304359.0	1776544999.25352	0.0	1.0	-1.0	-1.0	-1.0	-1.0	-1.0	-1.0	-1.0	-1.0	0.0	marker	peace	Peace	28	0418
-68798.06999999999	-55621.665	-104938.37999999999	-18595.844999999998	0.0	0.0	0.0	0.0	0.0	0.0	0.0	0.0	0.0	0.0	0.0	0.0	0.0	0.0	146.13793103448276	0.0	0.02539056	-0.034606845	1.025449035	4.28806	0.47306	-1.89224	3304360.0	1776544999.253536	0.0	1.0	-1.0	-1.0	-1.0	-1.0	-1.0	-1.0	-1.0	-1.0	0.0	marker	peace	Peace	28	0418
-68718.015	-55635.165	-104877.9	-18550.98	0.0	0.0	0.0	0.0	0.0	0.0	0.0	0.0	0.0	0.0	0.0	0.0	0.0	0.0	146.13793103448276	0.0	0.02539056	-0.034606845	1.025449035	4.28806	0.47306	-1.89224	3304361.0	1776544999.259486	0.0	1.0	-1.0	-1.0	-1.0	-1.0	-1.0	-1.0	-1.0	-1.0	0.0	marker	peace	Peace	28	0418
-68765.58	-55639.17	-104918.4	-18591.57	0.0	0.0	0.0	0.0	0.0	0.0	0.0	0.0	0.0	0.0	0.0	0.0	0.0	0.0	146.13793103448276	0.0	0.02539056	-0.034606845	1.025449035	4.28806	0.47306	-1.89224	3304362.0	1776544999.259507	0.0	1.0	-1.0	-1.0	-1.0	-1.0	-1.0	-1.0	-1.0	-1.0	0.0	marker	peace	Peace	28	0418
-68846.08499999999	-55643.49	-104990.48999999999	-18660.329999999998	0.0	0.0	0.0	0.0	0.0	0.0	0.0	0.0	0.0	0.0	0.0	0.0	0.0	0.0	146.13793103448276	0.0	0.035461335000000004	-0.034973055	1.0152561900000001	4.822159999999999	0.71722	-0.47306	3304363.0	1776544999.261752	0.0	1.0	-1.0	-1.0	-1.0	-1.0	-1.0	-1.0	-1.0	-1.0	0.0	marker	peace	Peace	28	0418
-68785.33499999999	-55635.345	-104952.87	-18627.93	0.0	0.0	0.0	0.0	0.0	0.0	0.0	0.0	0.0	0.0	0.0	0.0	0.0	0.0	146.13793103448276	0.0	0.035461335000000004	-0.034973055	1.0152561900000001	4.822159999999999	0.71722	-0.47306	3304364.0	1776544999.261779	0.0	1.0	-1.0	-1.0	-1.0	-1.0	-1.0	-1.0	-1.0	-1.0	0.0	marker	peace	Peace	28	0418
-68818.905	-55629.045	-104974.73999999999	-18645.704999999998	0.0	0.0	0.0	0.0	0.0	0.0	0.0	0.0	0.0	0.0	0.0	0.0	0.0	0.0	146.13793103448276	0.0	0.035461335000000004	-0.034973055	1.0152561900000001	4.822159999999999	0.71722	-0.47306	3304365.0	1776544999.265596	0.0	1.0	-1.0	-1.0	-1.0	-1.0	-1.0	-1.0	-1.0	-1.0	0.0	marker	peace	Peace	28	0418
-68772.69	-55626.345	-104942.655	-18621.719999999998	0.0	0.0	0.0	0.0	0.0	0.0	0.0	0.0	0.0	0.0	0.0	0.0	0.0	0.0	146.13793103448276	0.0	0.035461335000000004	-0.034973055	1.0152561900000001	4.822159999999999	0.71722	-0.47306	3304366.0	1776544999.26562	0.0	1.0	-1.0	-1.0	-1.0	-1.0	-1.0	-1.0	-1.0	-1.0	0.0	marker	peace	Peace	28	0418
-68703.885	-55620.81	-104863.86	-18560.475	0.0	0.0	0.0	0.0	0.0	0.0	0.0	0.0	0.0	0.0	0.0	0.0	0.0	0.0	146.13793103448276	0.0	0.035461335000000004	-0.034973055	1.0152561900000001	4.822159999999999	0.71722	-0.47306	3304367.0	1776544999.271039	0.0	1.0	-1.0	-1.0	-1.0	-1.0	-1.0	-1.0	-1.0	-1.0	0.0	marker	peace	Peace	28	0418
-68744.565	-55632.555	-104877.18	-18562.23	0.0	0.0	0.0	0.0	0.0	0.0	0.0	0.0	0.0	0.0	0.0	0.0	0.0	0.0	146.13793103448276	0.0	0.035461335000000004	-0.034973055	1.0152561900000001	4.822159999999999	0.71722	-0.47306	3304368.0	1776544999.271063	0.0	1.0	-1.0	-1.0	-1.0	-1.0	-1.0	-1.0	-1.0	-1.0	0.0	marker	peace	Peace	28	0418
-68807.52	-55652.579999999994	-104937.165	-18618.075	0.0	0.0	0.0	0.0	0.0	0.0	0.0	0.0	0.0	0.0	0.0	0.0	0.0	0.0	146.13793103448276	0.0	0.035461335000000004	-0.034973055	1.0152561900000001	4.822159999999999	0.71722	-0.47306	3304369.0	1776544999.273531	0.0	1.0	-1.0	-1.0	-1.0	-1.0	-1.0	-1.0	-1.0	-1.0	0.0	marker	peace	Peace	28	0418
-68826.015	-55659.555	-104967.18	-18660.465	0.0	0.0	0.0	0.0	0.0	0.0	0.0	0.0	0.0	0.0	0.0	0.0	0.0	0.0	146.13793103448276	0.0	0.035461335000000004	-0.034973055	1.0152561900000001	4.822159999999999	0.71722	-0.47306	3304370.0	1776544999.273552	0.0	1.0	-1.0	-1.0	-1.0	-1.0	-1.0	-1.0	-1.0	-1.0	0.0	marker	peace	Peace	28	0418
-68818.545	-55657.215	-104973.12	-18660.96	0.0	0.0	0.0	0.0	0.0	0.0	0.0	0.0	0.0	0.0	0.0	0.0	0.0	0.0	146.13793103448276	0.0	0.035461335000000004	-0.034973055	1.0152561900000001	4.822159999999999	0.71722	-0.47306	3304371.0	1776544999.27753	0.0	1.0	-1.0	-1.0	-1.0	-1.0	-1.0	-1.0	-1.0	-1.0	0.0	marker	peace	Peace	28	0418
-68838.03	-55656.314999999995	-104976.765	-18651.915	0.0	0.0	0.0	0.0	0.0	0.0	0.0	0.0	0.0	0.0	0.0	0.0	0.0	0.0	146.13793103448276	0.0	0.035461335000000004	-0.034973055	1.0152561900000001	4.822159999999999	0.71722	-0.47306	3304372.0	1776544999.277549	0.0	1.0	-1.0	-1.0	-1.0	-1.0	-1.0	-1.0	-1.0	-1.0	0.0	marker	peace	Peace	28	0418
-68833.395	-55653.345	-104965.37999999999	-18645.84	0.0	0.0	0.0	0.0	0.0	0.0	0.0	0.0	0.0	0.0	0.0	0.0	0.0	0.0	146.13793103448276	0.0	0.040099995	-0.03381339	1.00549059	4.4711799999999995	2.62472	0.07629999999999999	3304373.0	1776544999.281718	0.0	1.0	-1.0	-1.0	-1.0	-1.0	-1.0	-1.0	-1.0	-1.0	0.0	marker	peace	Peace	28	0418
-68811.705	-55645.335	-104961.87	-18651.465	0.0	0.0	0.0	0.0	0.0	0.0	0.0	0.0	0.0	0.0	0.0	0.0	0.0	0.0	146.13793103448276	0.0	0.040099995	-0.03381339	1.00549059	4.4711799999999995	2.62472	0.07629999999999999	3304374.0	1776544999.281748	0.0	1.0	-1.0	-1.0	-1.0	-1.0	-1.0	-1.0	-1.0	-1.0	0.0	marker	peace	Peace	28	0418
-68803.2	-55638.945	-104948.325	-18636.975	0.0	0.0	0.0	0.0	0.0	0.0	0.0	0.0	0.0	0.0	0.0	0.0	0.0	0.0	146.13793103448276	0.0	0.040099995	-0.03381339	1.00549059	4.4711799999999995	2.62472	0.07629999999999999	3304375.0	1776544999.28566	0.0	1.0	-1.0	-1.0	-1.0	-1.0	-1.0	-1.0	-1.0	-1.0	0.0	marker	peace	Peace	28	0418
-68803.83	-55641.104999999996	-104955.65999999999	-18650.34	0.0	0.0	0.0	0.0	0.0	0.0	0.0	0.0	0.0	0.0	0.0	0.0	0.0	0.0	146.13793103448276	0.0	0.040099995	-0.03381339	1.00549059	4.4711799999999995	2.62472	0.07629999999999999	3304376.0	1776544999.285694	0.0	1.0	-1.0	-1.0	-1.0	-1.0	-1.0	-1.0	-1.0	-1.0	0.0	marker	peace	Peace	28	0418
-68791.36499999999	-55639.034999999996	-104941.89	-18643.23	0.0	0.0	0.0	0.0	0.0	0.0	0.0	0.0	0.0	0.0	0.0	0.0	0.0	0.0	146.13793103448276	0.0	0.040099995	-0.03381339	1.00549059	4.4711799999999995	2.62472	0.07629999999999999	3304377.0	1776544999.289591	0.0	1.0	-1.0	-1.0	-1.0	-1.0	-1.0	-1.0	-1.0	-1.0	0.0	marker	peace	Peace	28	0418
-68800.455	-55633.59	-104936.44499999999	-18619.469999999998	0.0	0.0	0.0	0.0	0.0	0.0	0.0	0.0	0.0	0.0	0.0	0.0	0.0	0.0	146.13793103448276	0.0	0.040099995	-0.03381339	1.00549059	4.4711799999999995	2.62472	0.07629999999999999	3304378.0	1776544999.28961	0.0	1.0	-1.0	-1.0	-1.0	-1.0	-1.0	-1.0	-1.0	-1.0	0.0	marker	peace	Peace	28	0418
-68719.905	-55628.729999999996	-104886.81	-18544.14	0.0	0.0	0.0	0.0	0.0	0.0	0.0	0.0	0.0	0.0	0.0	0.0	0.0	0.0	146.13793103448276	0.0	0.040099995	-0.03381339	1.00549059	4.4711799999999995	2.62472	0.07629999999999999	3304379.0	1776544999.29362	0.0	1.0	-1.0	-1.0	-1.0	-1.0	-1.0	-1.0	-1.0	-1.0	0.0	marker	peace	Peace	28	0418
-68687.19	-55633.59	-104852.79	-18521.684999999998	0.0	0.0	0.0	0.0	0.0	0.0	0.0	0.0	0.0	0.0	0.0	0.0	0.0	0.0	146.13793103448276	0.0	0.040099995	-0.03381339	1.00549059	4.4711799999999995	2.62472	0.07629999999999999	3304380.0	1776544999.293641	0.0	1.0	-1.0	-1.0	-1.0	-1.0	-1.0	-1.0	-1.0	-1.0	0.0	marker	peace	Peace	28	0418
-68770.305	-55642.68	-104878.03499999999	-18595.755	0.0	0.0	0.0	0.0	0.0	0.0	0.0	0.0	0.0	0.0	0.0	0.0	0.0	0.0	146.13793103448276	0.0	0.040099995	-0.03381339	1.00549059	4.4711799999999995	2.62472	0.07629999999999999	3304381.0	1776544999.297641	0.0	1.0	-1.0	-1.0	-1.0	-1.0	-1.0	-1.0	-1.0	-1.0	0.0	marker	peace	Peace	28	0418
-68866.605	-55649.564999999995	-104947.78499999999	-18678.105	0.0	0.0	0.0	0.0	0.0	0.0	0.0	0.0	0.0	0.0	0.0	0.0	0.0	0.0	146.13793103448276	0.0	0.040099995	-0.03381339	1.00549059	4.4711799999999995	2.62472	0.07629999999999999	3304382.0	1776544999.297673	0.0	1.0	-1.0	-1.0	-1.0	-1.0	-1.0	-1.0	-1.0	-1.0	0.0	marker	peace	Peace	28	0418
-68814.63	-55655.82	-104966.55	-18647.19	0.0	0.0	0.0	0.0	0.0	0.0	0.0	0.0	0.0	0.0	0.0	0.0	0.0	0.0	146.13793103448276	0.0	0.03613272	-0.027099540000000002	1.005063345	1.35814	3.25038	1.31236	3304383.0	1776544999.301808	0.0	1.0	-1.0	-1.0	-1.0	-1.0	-1.0	-1.0	-1.0	-1.0	0.0	marker	peace	Peace	28	0418
-68788.755	-55675.979999999996	-104975.37	-18626.94	0.0	0.0	0.0	0.0	0.0	0.0	0.0	0.0	0.0	0.0	0.0	0.0	0.0	0.0	146.13793103448276	0.0	0.03613272	-0.027099540000000002	1.005063345	1.35814	3.25038	1.31236	3304384.0	1776544999.301836	0.0	1.0	-1.0	-1.0	-1.0	-1.0	-1.0	-1.0	-1.0	-1.0	0.0	marker	peace	Peace	28	0418
-68779.17	-55688.625	-104949.765	-18619.155	0.0	0.0	0.0	0.0	0.0	0.0	0.0	0.0	0.0	0.0	0.0	0.0	0.0	0.0	146.13793103448276	0.0	0.03613272	-0.027099540000000002	1.005063345	1.35814	3.25038	1.31236	3304385.0	1776544999.305699	0.0	1.0	-1.0	-1.0	-1.0	-1.0	-1.0	-1.0	-1.0	-1.0	0.0	marker	peace	Peace	28	0418
-68781.19499999999	-55697.805	-104927.4	-18611.774999999998	0.0	0.0	0.0	0.0	0.0	0.0	0.0	0.0	0.0	0.0	0.0	0.0	0.0	0.0	146.13793103448276	0.0	0.03613272	-0.027099540000000002	1.005063345	1.35814	3.25038	1.31236	3304386.0	1776544999.305721	0.0	1.0	-1.0	-1.0	-1.0	-1.0	-1.0	-1.0	-1.0	-1.0	0.0	marker	peace	Peace	28	0418
-68777.81999999999	-55707.659999999996	-104894.415	-18599.67	0.0	0.0	0.0	0.0	0.0	0.0	0.0	0.0	0.0	0.0	0.0	0.0	0.0	0.0	146.13793103448276	0.0	0.03613272	-0.027099540000000002	1.005063345	1.35814	3.25038	1.31236	3304387.0	1776544999.309699	0.0	1.0	-1.0	-1.0	-1.0	-1.0	-1.0	-1.0	-1.0	-1.0	0.0	marker	peace	Peace	28	0418
-68762.47499999999	-55752.795	-104883.48	-18613.035	0.0	0.0	0.0	0.0	0.0	0.0	0.0	0.0	0.0	0.0	0.0	0.0	0.0	0.0	146.13793103448276	0.0	0.03613272	-0.027099540000000002	1.005063345	1.35814	3.25038	1.31236	3304388.0	1776544999.309719	0.0	1.0	-1.0	-1.0	-1.0	-1.0	-1.0	-1.0	-1.0	-1.0	0.0	marker	peace	Peace	28	0418
-68765.13	-55754.595	-104924.06999999999	-18640.53	0.0	0.0	0.0	0.0	0.0	0.0	0.0	0.0	0.0	0.0	0.0	0.0	0.0	0.0	146.13793103448276	0.0	0.03613272	-0.027099540000000002	1.005063345	1.35814	3.25038	1.31236	3304389.0	1776544999.324546	0.0	1.0	-1.0	-1.0	-1.0	-1.0	-1.0	-1.0	-1.0	-1.0	0.0	marker	peace	Peace	28	0418
-68705.45999999999	-55737.18	-104870.83499999999	-18559.8	0.0	0.0	0.0	0.0	0.0	0.0	0.0	0.0	0.0	0.0	0.0	0.0	0.0	0.0	146.13793103448276	0.0	0.03613272	-0.027099540000000002	1.005063345	1.35814	3.25038	1.31236	3304390.0	1776544999.324591	0.0	1.0	-1.0	-1.0	-1.0	-1.0	-1.0	-1.0	-1.0	-1.0	0.0	marker	peace	Peace	28	0418
-68734.845	-55724.49	-104860.665	-18536.985	0.0	0.0	0.0	0.0	0.0	0.0	0.0	0.0	0.0	0.0	0.0	0.0	0.0	0.0	146.13793103448276	0.0	0.03613272	-0.027099540000000002	1.005063345	1.35814	3.25038	1.31236	3304391.0	1776544999.32463	0.0	1.0	-1.0	-1.0	-1.0	-1.0	-1.0	-1.0	-1.0	-1.0	0.0	marker	peace	Peace	28	0418
-68727.59999999999	-55733.715	-104863.00499999999	-18558.945	0.0	0.0	0.0	0.0	0.0	0.0	0.0	0.0	0.0	0.0	0.0	0.0	0.0	0.0	146.13793103448276	0.0	0.03613272	-0.027099540000000002	1.005063345	1.35814	3.25038	1.31236	3304392.0	1776544999.324648	0.0	1.0	-1.0	-1.0	-1.0	-1.0	-1.0	-1.0	-1.0	-1.0	0.0	marker	peace	Peace	28	0418
-68808.015	-55753.604999999996	-104957.73	-18647.505	0.0	0.0	0.0	0.0	0.0	0.0	0.0	0.0	0.0	0.0	0.0	0.0	0.0	0.0	146.13793103448276	0.0	0.02990715	-0.02783196	1.018368975	-0.88508	2.3653	0.3815	3304393.0	1776544999.324672	0.0	1.0	-1.0	-1.0	-1.0	-1.0	-1.0	-1.0	-1.0	-1.0	0.0	marker	peace	Peace	28	0418
-68814.0	-55758.465	-104977.39499999999	-18632.204999999998	0.0	0.0	0.0	0.0	0.0	0.0	0.0	0.0	0.0	0.0	0.0	0.0	0.0	0.0	146.13793103448276	0.0	0.02990715	-0.02783196	1.018368975	-0.88508	2.3653	0.3815	3304394.0	1776544999.324687	0.0	1.0	-1.0	-1.0	-1.0	-1.0	-1.0	-1.0	-1.0	-1.0	0.0	marker	peace	Peace	28	0418
-68825.925	-55754.729999999996	-104955.65999999999	-18621.405	0.0	0.0	0.0	0.0	0.0	0.0	0.0	0.0	0.0	0.0	0.0	0.0	0.0	0.0	146.13793103448276	0.0	0.02990715	-0.02783196	1.018368975	-0.88508	2.3653	0.3815	3304395.0	1776544999.325761	0.0	1.0	-1.0	-1.0	-1.0	-1.0	-1.0	-1.0	-1.0	-1.0	0.0	marker	peace	Peace	28	0418
-68743.34999999999	-55741.229999999996	-104858.09999999999	-18559.755	0.0	0.0	0.0	0.0	0.0	0.0	0.0	0.0	0.0	0.0	0.0	0.0	0.0	0.0	146.13793103448276	0.0	0.02990715	-0.02783196	1.018368975	-0.88508	2.3653	0.3815	3304396.0	1776544999.325777	0.0	1.0	-1.0	-1.0	-1.0	-1.0	-1.0	-1.0	-1.0	-1.0	0.0	marker	peace	Peace	28	0418
-68731.02	-55739.655	-104834.15999999999	-18567.405	0.0	0.0	0.0	0.0	0.0	0.0	0.0	0.0	0.0	0.0	0.0	0.0	0.0	0.0	146.13793103448276	0.0	0.02990715	-0.02783196	1.018368975	-0.88508	2.3653	0.3815	3304397.0	1776544999.329997	0.0	1.0	-1.0	-1.0	-1.0	-1.0	-1.0	-1.0	-1.0	-1.0	0.0	marker	peace	Peace	28	0418
-68821.11	-55738.305	-104964.25499999999	-18661.32	0.0	0.0	0.0	0.0	0.0	0.0	0.0	0.0	0.0	0.0	0.0	0.0	0.0	0.0	146.13793103448276	0.0	0.02990715	-0.02783196	1.018368975	-0.88508	2.3653	0.3815	3304398.0	1776544999.330023	0.0	1.0	-1.0	-1.0	-1.0	-1.0	-1.0	-1.0	-1.0	-1.0	0.0	marker	peace	Peace	28	0418
-68822.595	-55738.215	-104959.215	-18629.28	0.0	0.0	0.0	0.0	0.0	0.0	0.0	0.0	0.0	0.0	0.0	0.0	0.0	0.0	146.13793103448276	0.0	0.02990715	-0.02783196	1.018368975	-0.88508	2.3653	0.3815	3304399.0	1776544999.333892	0.0	1.0	-1.0	-1.0	-1.0	-1.0	-1.0	-1.0	-1.0	-1.0	0.0	marker	peace	Peace	28	0418
-68778.675	-55747.395	-104944.23	-18587.204999999998	0.0	0.0	0.0	0.0	0.0	0.0	0.0	0.0	0.0	0.0	0.0	0.0	0.0	0.0	146.13793103448276	0.0	0.02990715	-0.02783196	1.018368975	-0.88508	2.3653	0.3815	3304400.0	1776544999.333915	0.0	1.0	-1.0	-1.0	-1.0	-1.0	-1.0	-1.0	-1.0	-1.0	0.0	marker	peace	Peace	28	0418
-68762.16	-55757.79	-104965.515	-18598.815	0.0	0.0	0.0	0.0	0.0	0.0	0.0	0.0	0.0	0.0	0.0	0.0	0.0	0.0	146.13793103448276	0.0	0.02990715	-0.02783196	1.018368975	-0.88508	2.3653	0.3815	3304401.0	1776544999.339156	0.0	1.0	-1.0	-1.0	-1.0	-1.0	-1.0	-1.0	-1.0	-1.0	0.0	marker	peace	Peace	28	0418
-68797.98	-55762.244999999995	-104986.98	-18655.965	0.0	0.0	0.0	0.0	0.0	0.0	0.0	0.0	0.0	0.0	0.0	0.0	0.0	0.0	146.13793103448276	0.0	0.02990715	-0.02783196	1.018368975	-0.88508	2.3653	0.3815	3304402.0	1776544999.339177	0.0	1.0	-1.0	-1.0	-1.0	-1.0	-1.0	-1.0	-1.0	-1.0	0.0	marker	peace	Peace	28	0418
-68724.495	-55757.43	-104904.26999999999	-18589.995	0.0	0.0	0.0	0.0	0.0	0.0	0.0	0.0	0.0	0.0	0.0	0.0	0.0	0.0	146.13793103448276	0.0	0.020690865	-0.03832998	1.021176585	1.26658	1.09872	-1.4497	3304403.0	1776544999.343626	0.0	1.0	-1.0	-1.0	-1.0	-1.0	-1.0	-1.0	-1.0	-1.0	0.0	marker	peace	Peace	28	0418
-68763.51	-55760.354999999996	-104904.94499999999	-18605.43	0.0	0.0	0.0	0.0	0.0	0.0	0.0	0.0	0.0	0.0	0.0	0.0	0.0	0.0	146.13793103448276	0.0	0.020690865	-0.03832998	1.021176585	1.26658	1.09872	-1.4497	3304404.0	1776544999.343646	0.0	1.0	-1.0	-1.0	-1.0	-1.0	-1.0	-1.0	-1.0	-1.0	0.0	marker	peace	Peace	28	0418
-68804.955	-55765.35	-104929.29	-18612.27	0.0	0.0	0.0	0.0	0.0	0.0	0.0	0.0	0.0	0.0	0.0	0.0	0.0	0.0	146.13793103448276	0.0	0.020690865	-0.03832998	1.021176585	1.26658	1.09872	-1.4497	3304405.0	1776544999.346054	0.0	1.0	-1.0	-1.0	-1.0	-1.0	-1.0	-1.0	-1.0	-1.0	0.0	marker	peace	Peace	28	0418
-68829.66	-55758.24	-104965.69499999999	-18621.18	0.0	0.0	0.0	0.0	0.0	0.0	0.0	0.0	0.0	0.0	0.0	0.0	0.0	0.0	146.13793103448276	0.0	0.020690865	-0.03832998	1.021176585	1.26658	1.09872	-1.4497	3304406.0	1776544999.346077	0.0	1.0	-1.0	-1.0	-1.0	-1.0	-1.0	-1.0	-1.0	-1.0	0.0	marker	peace	Peace	28	0418
-68814.94499999999	-55757.88	-104945.22	-18630.945	0.0	0.0	0.0	0.0	0.0	0.0	0.0	0.0	0.0	0.0	0.0	0.0	0.0	0.0	146.13793103448276	0.0	0.020690865	-0.03832998	1.021176585	1.26658	1.09872	-1.4497	3304407.0	1776544999.350094	0.0	1.0	-1.0	-1.0	-1.0	-1.0	-1.0	-1.0	-1.0	-1.0	0.0	marker	peace	Peace	28	0418
-68805.98999999999	-55775.204999999994	-104920.965	-18665.055	0.0	0.0	0.0	0.0	0.0	0.0	0.0	0.0	0.0	0.0	0.0	0.0	0.0	0.0	146.13793103448276	0.0	0.020690865	-0.03832998	1.021176585	1.26658	1.09872	-1.4497	3304408.0	1776544999.35013	0.0	1.0	-1.0	-1.0	-1.0	-1.0	-1.0	-1.0	-1.0	-1.0	0.0	marker	peace	Peace	28	0418
-68826.645	-55791.63	-104956.47	-18660.87	0.0	0.0	0.0	0.0	0.0	0.0	0.0	0.0	0.0	0.0	0.0	0.0	0.0	0.0	146.13793103448276	0.0	0.020690865	-0.03832998	1.021176585	1.26658	1.09872	-1.4497	3304409.0	1776544999.355843	0.0	1.0	-1.0	-1.0	-1.0	-1.0	-1.0	-1.0	-1.0	-1.0	0.0	marker	peace	Peace	28	0418
-68809.5	-55793.88	-104993.235	-18638.64	0.0	0.0	0.0	0.0	0.0	0.0	0.0	0.0	0.0	0.0	0.0	0.0	0.0	0.0	146.13793103448276	0.0	0.020690865	-0.03832998	1.021176585	1.26658	1.09872	-1.4497	3304410.0	1776544999.355862	0.0	1.0	-1.0	-1.0	-1.0	-1.0	-1.0	-1.0	-1.0	-1.0	0.0	marker	peace	Peace	28	0418
-68825.565	-55796.31	-104987.745	-18649.26	0.0	0.0	0.0	0.0	0.0	0.0	0.0	0.0	0.0	0.0	0.0	0.0	0.0	0.0	146.13793103448276	0.0	0.020690865	-0.03832998	1.021176585	1.26658	1.09872	-1.4497	3304411.0	1776544999.358894	0.0	1.0	-1.0	-1.0	-1.0	-1.0	-1.0	-1.0	-1.0	-1.0	0.0	marker	peace	Peace	28	0418
-68794.605	-55796.354999999996	-104937.345	-18629.684999999998	0.0	0.0	0.0	0.0	0.0	0.0	0.0	0.0	0.0	0.0	0.0	0.0	0.0	0.0	146.13793103448276	0.0	0.020690865	-0.03832998	1.021176585	1.26658	1.09872	-1.4497	3304412.0	1776544999.358911	0.0	1.0	-1.0	-1.0	-1.0	-1.0	-1.0	-1.0	-1.0	-1.0	0.0	marker	peace	Peace	28	0418
-68768.145	-55787.805	-104874.84	-18584.055	0.0	0.0	0.0	0.0	0.0	0.0	0.0	0.0	0.0	0.0	0.0	0.0	0.0	0.0	146.13793103448276	0.0	0.01794429	-0.045104865	1.02856182	2.3042599999999998	-0.21364	0.06104	3304413.0	1776544999.362164	0.0	1.0	-1.0	-1.0	-1.0	-1.0	-1.0	-1.0	-1.0	-1.0	0.0	marker	peace	Peace	28	0418
-68758.73999999999	-55780.965	-104889.825	-18552.195	0.0	0.0	0.0	0.0	0.0	0.0	0.0	0.0	0.0	0.0	0.0	0.0	0.0	0.0	146.13793103448276	0.0	0.01794429	-0.045104865	1.02856182	2.3042599999999998	-0.21364	0.06104	3304414.0	1776544999.362193	0.0	1.0	-1.0	-1.0	-1.0	-1.0	-1.0	-1.0	-1.0	-1.0	0.0	marker	peace	Peace	28	0418
-68717.745	-55771.064999999995	-104853.735	-18548.505	0.0	0.0	0.0	0.0	0.0	0.0	0.0	0.0	0.0	0.0	0.0	0.0	0.0	0.0	146.13793103448276	0.0	0.01794429	-0.045104865	1.02856182	2.3042599999999998	-0.21364	0.06104	3304415.0	1776544999.365994	0.0	1.0	-1.0	-1.0	-1.0	-1.0	-1.0	-1.0	-1.0	-1.0	0.0	marker	peace	Peace	28	0418
-68786.73	-55775.115	-104946.03	-18642.915	0.0	0.0	0.0	0.0	0.0	0.0	0.0	0.0	0.0	0.0	0.0	0.0	0.0	0.0	146.13793103448276	0.0	0.01794429	-0.045104865	1.02856182	2.3042599999999998	-0.21364	0.06104	3304416.0	1776544999.366023	0.0	1.0	-1.0	-1.0	-1.0	-1.0	-1.0	-1.0	-1.0	-1.0	0.0	marker	peace	Peace	28	0418
-68816.745	-55771.784999999996	-104958.495	-18652.725	0.0	0.0	0.0	0.0	0.0	0.0	0.0	0.0	0.0	0.0	0.0	0.0	0.0	0.0	146.13793103448276	0.0	0.01794429	-0.045104865	1.02856182	2.3042599999999998	-0.21364	0.06104	3304417.0	1776544999.36997	0.0	1.0	-1.0	-1.0	-1.0	-1.0	-1.0	-1.0	-1.0	-1.0	0.0	marker	peace	Peace	28	0418
-68829.885	-55782.9	-104901.705	-18618.93	0.0	0.0	0.0	0.0	0.0	0.0	0.0	0.0	0.0	0.0	0.0	0.0	0.0	0.0	146.13793103448276	0.0	0.01794429	-0.045104865	1.02856182	2.3042599999999998	-0.21364	0.06104	3304418.0	1776544999.370008	0.0	1.0	-1.0	-1.0	-1.0	-1.0	-1.0	-1.0	-1.0	-1.0	0.0	marker	peace	Peace	28	0418
-68807.06999999999	-55792.125	-104900.48999999999	-18629.82	0.0	0.0	0.0	0.0	0.0	0.0	0.0	0.0	0.0	0.0	0.0	0.0	0.0	0.0	146.13793103448276	0.0	0.01794429	-0.045104865	1.02856182	2.3042599999999998	-0.21364	0.06104	3304419.0	1776544999.373939	0.0	1.0	-1.0	-1.0	-1.0	-1.0	-1.0	-1.0	-1.0	-1.0	0.0	marker	peace	Peace	28	0418
-68756.355	-55787.579999999994	-104914.08	-18610.11	0.0	0.0	0.0	0.0	0.0	0.0	0.0	0.0	0.0	0.0	0.0	0.0	0.0	0.0	146.13793103448276	0.0	0.01794429	-0.045104865	1.02856182	2.3042599999999998	-0.21364	0.06104	3304420.0	1776544999.373956	0.0	1.0	-1.0	-1.0	-1.0	-1.0	-1.0	-1.0	-1.0	-1.0	0.0	marker	peace	Peace	28	0418
-68738.44499999999	-55780.965	-104930.325	-18550.575	0.0	0.0	0.0	0.0	0.0	0.0	0.0	0.0	0.0	0.0	0.0	0.0	0.0	0.0	146.13793103448276	0.0	0.01794429	-0.045104865	1.02856182	2.3042599999999998	-0.21364	0.06104	3304421.0	1776544999.379198	0.0	1.0	-1.0	-1.0	-1.0	-1.0	-1.0	-1.0	-1.0	-1.0	0.0	marker	peace	Peace	28	0418
-68791.095	-55775.79	-104971.455	-18620.28	0.0	0.0	0.0	0.0	0.0	0.0	0.0	0.0	0.0	0.0	0.0	0.0	0.0	0.0	146.13793103448276	0.0	0.01794429	-0.045104865	1.02856182	2.3042599999999998	-0.21364	0.06104	3304422.0	1776544999.379224	0.0	1.0	-1.0	-1.0	-1.0	-1.0	-1.0	-1.0	-1.0	-1.0	0.0	marker	peace	Peace	28	0418
-68853.59999999999	-55774.845	-105005.97	-18683.91	0.0	0.0	0.0	0.0	0.0	0.0	0.0	0.0	0.0	0.0	0.0	0.0	0.0	0.0	145.86206896551727	0.0	0.016296345	-0.055847025	1.03747293	5.7835399999999995	-1.8617199999999998	-2.71628	3304423.0	1776544999.381945	0.0	1.0	-1.0	-1.0	-1.0	-1.0	-1.0	-1.0	-1.0	-1.0	0.0	marker	peace	Peace	28	0418
-68807.025	-55776.645	-104951.34	-18638.28	0.0	0.0	0.0	0.0	0.0	0.0	0.0	0.0	0.0	0.0	0.0	0.0	0.0	0.0	145.86206896551727	0.0	0.016296345	-0.055847025	1.03747293	5.7835399999999995	-1.8617199999999998	-2.71628	3304424.0	1776544999.381971	0.0	1.0	-1.0	-1.0	-1.0	-1.0	-1.0	-1.0	-1.0	-1.0	0.0	marker	peace	Peace	28	0418
-68755.41	-55780.92	-104903.415	-18610.065	0.0	0.0	0.0	0.0	0.0	0.0	0.0	0.0	0.0	0.0	0.0	0.0	0.0	0.0	145.86206896551727	0.0	0.016296345	-0.055847025	1.03747293	5.7835399999999995	-1.8617199999999998	-2.71628	3304425.0	1776544999.388127	0.0	1.0	-1.0	-1.0	-1.0	-1.0	-1.0	-1.0	-1.0	-1.0	0.0	marker	peace	Peace	28	0418
-68812.965	-55787.49	-104935.00499999999	-18643.454999999998	0.0	0.0	0.0	0.0	0.0	0.0	0.0	0.0	0.0	0.0	0.0	0.0	0.0	0.0	145.86206896551727	0.0	0.016296345	-0.055847025	1.03747293	5.7835399999999995	-1.8617199999999998	-2.71628	3304426.0	1776544999.388165	0.0	1.0	-1.0	-1.0	-1.0	-1.0	-1.0	-1.0	-1.0	-1.0	0.0	marker	peace	Peace	28	0418
-68797.485	-55797.165	-104929.29	-18611.325	0.0	0.0	0.0	0.0	0.0	0.0	0.0	0.0	0.0	0.0	0.0	0.0	0.0	0.0	145.86206896551727	0.0	0.016296345	-0.055847025	1.03747293	5.7835399999999995	-1.8617199999999998	-2.71628	3304427.0	1776544999.390277	0.0	1.0	-1.0	-1.0	-1.0	-1.0	-1.0	-1.0	-1.0	-1.0	0.0	marker	peace	Peace	28	0418
-68813.73	-55802.115	-104958.72	-18622.755	0.0	0.0	0.0	0.0	0.0	0.0	0.0	0.0	0.0	0.0	0.0	0.0	0.0	0.0	145.86206896551727	0.0	0.016296345	-0.055847025	1.03747293	5.7835399999999995	-1.8617199999999998	-2.71628	3304428.0	1776544999.390295	0.0	1.0	-1.0	-1.0	-1.0	-1.0	-1.0	-1.0	-1.0	-1.0	0.0	marker	peace	Peace	28	0418
-68830.65	-55798.47	-104957.64	-18645.704999999998	0.0	0.0	0.0	0.0	0.0	0.0	0.0	0.0	0.0	0.0	0.0	0.0	0.0	0.0	145.86206896551727	0.0	0.016296345	-0.055847025	1.03747293	5.7835399999999995	-1.8617199999999998	-2.71628	3304429.0	1776544999.394014	0.0	1.0	-1.0	-1.0	-1.0	-1.0	-1.0	-1.0	-1.0	-1.0	0.0	marker	peace	Peace	28	0418
-68801.13	-55795.049999999996	-104904.62999999999	-18610.695	0.0	0.0	0.0	0.0	0.0	0.0	0.0	0.0	0.0	0.0	0.0	0.0	0.0	0.0	145.86206896551727	0.0	0.016296345	-0.055847025	1.03747293	5.7835399999999995	-1.8617199999999998	-2.71628	3304430.0	1776544999.39403	0.0	1.0	-1.0	-1.0	-1.0	-1.0	-1.0	-1.0	-1.0	-1.0	0.0	marker	peace	Peace	28	0418
-68794.02	-55788.21	-104907.64499999999	-18619.605	0.0	0.0	0.0	0.0	0.0	0.0	0.0	0.0	0.0	0.0	0.0	0.0	0.0	0.0	145.86206896551727	0.0	0.016296345	-0.055847025	1.03747293	5.7835399999999995	-1.8617199999999998	-2.71628	3304431.0	1776544999.397972	0.0	1.0	-1.0	-1.0	-1.0	-1.0	-1.0	-1.0	-1.0	-1.0	0.0	marker	peace	Peace	28	0418
-68795.81999999999	-55783.979999999996	-104925.465	-18614.34	0.0	0.0	0.0	0.0	0.0	0.0	0.0	0.0	0.0	0.0	0.0	0.0	0.0	0.0	145.86206896551727	0.0	0.016296345	-0.055847025	1.03747293	5.7835399999999995	-1.8617199999999998	-2.71628	3304432.0	1776544999.397989	0.0	1.0	-1.0	-1.0	-1.0	-1.0	-1.0	-1.0	-1.0	-1.0	0.0	marker	peace	Peace	28	0418
-68787.855	-55809.99	-104930.50499999999	-18613.665	0.0	0.0	0.0	0.0	0.0	0.0	0.0	0.0	0.0	0.0	0.0	0.0	0.0	0.0	145.86206896551727	0.0	0.021179145	-0.064391925	1.03527567	9.85796	-2.47212	-4.0896799999999995	3304433.0	1776544999.402097	0.0	1.0	-1.0	-1.0	-1.0	-1.0	-1.0	-1.0	-1.0	-1.0	0.0	marker	peace	Peace	28	0418
-68758.02	-55835.189999999995	-104905.44	-18591.75	0.0	0.0	0.0	0.0	0.0	0.0	0.0	0.0	0.0	0.0	0.0	0.0	0.0	0.0	145.86206896551727	0.0	0.021179145	-0.064391925	1.03527567	9.85796	-2.47212	-4.0896799999999995	3304434.0	1776544999.402121	0.0	1.0	-1.0	-1.0	-1.0	-1.0	-1.0	-1.0	-1.0	-1.0	0.0	marker	peace	Peace	28	0418
-68764.005	-55839.24	-104903.955	-18581.805	0.0	0.0	0.0	0.0	0.0	0.0	0.0	0.0	0.0	0.0	0.0	0.0	0.0	0.0	145.86206896551727	0.0	0.021179145	-0.064391925	1.03527567	9.85796	-2.47212	-4.0896799999999995	3304435.0	1776544999.405957	0.0	1.0	-1.0	-1.0	-1.0	-1.0	-1.0	-1.0	-1.0	-1.0	0.0	marker	peace	Peace	28	0418
-68778.0	-55831.994999999995	-104919.885	-18597.239999999998	0.0	0.0	0.0	0.0	0.0	0.0	0.0	0.0	0.0	0.0	0.0	0.0	0.0	0.0	145.86206896551727	0.0	0.021179145	-0.064391925	1.03527567	9.85796	-2.47212	-4.0896799999999995	3304436.0	1776544999.405969	0.0	1.0	-1.0	-1.0	-1.0	-1.0	-1.0	-1.0	-1.0	-1.0	0.0	marker	peace	Peace	28	0418
-68783.805	-55822.14	-104925.42	-18602.46	0.0	0.0	0.0	0.0	0.0	0.0	0.0	0.0	0.0	0.0	0.0	0.0	0.0	0.0	145.86206896551727	0.0	0.021179145	-0.064391925	1.03527567	9.85796	-2.47212	-4.0896799999999995	3304437.0	1776544999.411505	0.0	1.0	-1.0	-1.0	-1.0	-1.0	-1.0	-1.0	-1.0	-1.0	0.0	marker	peace	Peace	28	0418
-68784.885	-55806.795	-104940.045	-18619.829999999998	0.0	0.0	0.0	0.0	0.0	0.0	0.0	0.0	0.0	0.0	0.0	0.0	0.0	0.0	145.86206896551727	0.0	0.021179145	-0.064391925	1.03527567	9.85796	-2.47212	-4.0896799999999995	3304438.0	1776544999.411535	0.0	1.0	-1.0	-1.0	-1.0	-1.0	-1.0	-1.0	-1.0	-1.0	0.0	marker	peace	Peace	28	0418
-68784.84	-55794.015	-104943.64499999999	-18611.055	0.0	0.0	0.0	0.0	0.0	0.0	0.0	0.0	0.0	0.0	0.0	0.0	0.0	0.0	145.86206896551727	0.0	0.021179145	-0.064391925	1.03527567	9.85796	-2.47212	-4.0896799999999995	3304439.0	1776544999.414868	0.0	1.0	-1.0	-1.0	-1.0	-1.0	-1.0	-1.0	-1.0	-1.0	0.0	marker	peace	Peace	28	0418
-68732.595	-55783.215	-104903.235	-18578.024999999998	0.0	0.0	0.0	0.0	0.0	0.0	0.0	0.0	0.0	0.0	0.0	0.0	0.0	0.0	145.86206896551727	0.0	0.021179145	-0.064391925	1.03527567	9.85796	-2.47212	-4.0896799999999995	3304440.0	1776544999.414897	0.0	1.0	-1.0	-1.0	-1.0	-1.0	-1.0	-1.0	-1.0	-1.0	0.0	marker	peace	Peace	28	0418
-68741.415	-55781.145	-104896.53	-18589.454999999998	0.0	0.0	0.0	0.0	0.0	0.0	0.0	0.0	0.0	0.0	0.0	0.0	0.0	0.0	145.86206896551727	0.0	0.021179145	-0.064391925	1.03527567	9.85796	-2.47212	-4.0896799999999995	3304441.0	1776544999.418166	0.0	1.0	-1.0	-1.0	-1.0	-1.0	-1.0	-1.0	-1.0	-1.0	0.0	marker	peace	Peace	28	0418
-68751.54	-55791.54	-104895.94499999999	-18599.489999999998	0.0	0.0	0.0	0.0	0.0	0.0	0.0	0.0	0.0	0.0	0.0	0.0	0.0	0.0	145.86206896551727	0.0	0.021179145	-0.064391925	1.03527567	9.85796	-2.47212	-4.0896799999999995	3304442.0	1776544999.418185	0.0	1.0	-1.0	-1.0	-1.0	-1.0	-1.0	-1.0	-1.0	-1.0	0.0	marker	peace	Peace	28	0418
-68823.09	-55805.534999999996	-104973.48	-18683.055	0.0	0.0	0.0	0.0	0.0	0.0	0.0	0.0	0.0	0.0	0.0	0.0	0.0	0.0	145.86206896551727	0.0	0.02502435	-0.0537108	1.02551007	12.42164	-1.57178	-2.8994	3304443.0	1776544999.422174	0.0	1.0	-1.0	-1.0	-1.0	-1.0	-1.0	-1.0	-1.0	-1.0	0.0	marker	peace	Peace	28	0418
-68729.985	-55806.03	-104884.2	-18589.95	0.0	0.0	0.0	0.0	0.0	0.0	0.0	0.0	0.0	0.0	0.0	0.0	0.0	0.0	145.86206896551727	0.0	0.02502435	-0.0537108	1.02551007	12.42164	-1.57178	-2.8994	3304444.0	1776544999.422203	0.0	1.0	-1.0	-1.0	-1.0	-1.0	-1.0	-1.0	-1.0	-1.0	0.0	marker	peace	Peace	28	0418
-68671.935	-55813.77	-104838.165	-18527.579999999998	0.0	0.0	0.0	0.0	0.0	0.0	0.0	0.0	0.0	0.0	0.0	0.0	0.0	0.0	145.86206896551727	0.0	0.02502435	-0.0537108	1.02551007	12.42164	-1.57178	-2.8994	3304445.0	1776544999.426174	0.0	1.0	-1.0	-1.0	-1.0	-1.0	-1.0	-1.0	-1.0	-1.0	0.0	marker	peace	Peace	28	0418
-68822.955	-55819.35	-104970.64499999999	-18638.594999999998	0.0	0.0	0.0	0.0	0.0	0.0	0.0	0.0	0.0	0.0	0.0	0.0	0.0	0.0	145.86206896551727	0.0	0.02502435	-0.0537108	1.02551007	12.42164	-1.57178	-2.8994	3304446.0	1776544999.42619	0.0	1.0	-1.0	-1.0	-1.0	-1.0	-1.0	-1.0	-1.0	-1.0	0.0	marker	peace	Peace	28	0418
-68867.37	-55811.43	-105014.11499999999	-18650.745	0.0	0.0	0.0	0.0	0.0	0.0	0.0	0.0	0.0	0.0	0.0	0.0	0.0	0.0	145.86206896551727	0.0	0.02502435	-0.0537108	1.02551007	12.42164	-1.57178	-2.8994	3304447.0	1776544999.430143	0.0	1.0	-1.0	-1.0	-1.0	-1.0	-1.0	-1.0	-1.0	-1.0	0.0	marker	peace	Peace	28	0418
-68754.78	-55798.604999999996	-104911.2	-18573.12	0.0	0.0	0.0	0.0	0.0	0.0	0.0	0.0	0.0	0.0	0.0	0.0	0.0	0.0	145.86206896551727	0.0	0.02502435	-0.0537108	1.02551007	12.42164	-1.57178	-2.8994	3304448.0	1776544999.430157	0.0	1.0	-1.0	-1.0	-1.0	-1.0	-1.0	-1.0	-1.0	-1.0	0.0	marker	peace	Peace	28	0418
-68768.955	-55805.939999999995	-104920.29	-18610.739999999998	0.0	0.0	0.0	0.0	0.0	0.0	0.0	0.0	0.0	0.0	0.0	0.0	0.0	0.0	145.86206896551727	0.0	0.02502435	-0.0537108	1.02551007	12.42164	-1.57178	-2.8994	3304449.0	1776544999.436423	0.0	1.0	-1.0	-1.0	-1.0	-1.0	-1.0	-1.0	-1.0	-1.0	0.0	marker	peace	Peace	28	0418
-68855.04	-55806.57	-104976.62999999999	-18688.5	0.0	0.0	0.0	0.0	0.0	0.0	0.0	0.0	0.0	0.0	0.0	0.0	0.0	0.0	145.86206896551727	0.0	0.02502435	-0.0537108	1.02551007	12.42164	-1.57178	-2.8994	3304450.0	1776544999.436449	0.0	1.0	-1.0	-1.0	-1.0	-1.0	-1.0	-1.0	-1.0	-1.0	0.0	marker	peace	Peace	28	0418
-68853.78	-55797.03	-104935.59	-18685.26	0.0	0.0	0.0	0.0	0.0	0.0	0.0	0.0	0.0	0.0	0.0	0.0	0.0	0.0	145.86206896551727	0.0	0.02502435	-0.0537108	1.02551007	12.42164	-1.57178	-2.8994	3304451.0	1776544999.43958	0.0	1.0	-1.0	-1.0	-1.0	-1.0	-1.0	-1.0	-1.0	-1.0	0.0	marker	peace	Peace	28	0418
-68821.965	-55789.92	-104910.93	-18625.545	0.0	0.0	0.0	0.0	0.0	0.0	0.0	0.0	0.0	0.0	0.0	0.0	0.0	0.0	145.86206896551727	0.0	0.02502435	-0.0537108	1.02551007	12.42164	-1.57178	-2.8994	3304452.0	1776544999.439595	0.0	1.0	-1.0	-1.0	-1.0	-1.0	-1.0	-1.0	-1.0	-1.0	0.0	marker	peace	Peace	28	0418
-68866.155	-55786.68	-104995.215	-18657.989999999998	0.0	0.0	0.0	0.0	0.0	0.0	0.0	0.0	0.0	0.0	0.0	0.0	0.0	0.0	145.86206896551727	0.0	0.027343680000000002	-0.0341796	1.01537826	6.9433	-1.55652	-3.052	3304453.0	1776544999.442114	0.0	1.0	-1.0	-1.0	-1.0	-1.0	-1.0	-1.0	-1.0	-1.0	0.0	marker	peace	Peace	28	0418
-68849.28	-55782.945	-104989.5	-18663.344999999998	0.0	0.0	0.0	0.0	0.0	0.0	0.0	0.0	0.0	0.0	0.0	0.0	0.0	0.0	145.86206896551727	0.0	0.027343680000000002	-0.0341796	1.01537826	6.9433	-1.55652	-3.052	3304454.0	1776544999.442125	0.0	1.0	-1.0	-1.0	-1.0	-1.0	-1.0	-1.0	-1.0	-1.0	0.0	marker	peace	Peace	28	0418
-68801.84999999999	-55777.32	-104977.17	-18651.69	0.0	0.0	0.0	0.0	0.0	0.0	0.0	0.0	0.0	0.0	0.0	0.0	0.0	0.0	145.86206896551727	0.0	0.027343680000000002	-0.0341796	1.01537826	6.9433	-1.55652	-3.052	3304455.0	1776544999.446142	0.0	1.0	-1.0	-1.0	-1.0	-1.0	-1.0	-1.0	-1.0	-1.0	0.0	marker	peace	Peace	28	0418
-68814.81	-55772.729999999996	-104985.94499999999	-18656.55	0.0	0.0	0.0	0.0	0.0	0.0	0.0	0.0	0.0	0.0	0.0	0.0	0.0	0.0	145.86206896551727	0.0	0.027343680000000002	-0.0341796	1.01537826	6.9433	-1.55652	-3.052	3304456.0	1776544999.446192	0.0	1.0	-1.0	-1.0	-1.0	-1.0	-1.0	-1.0	-1.0	-1.0	0.0	marker	peace	Peace	28	0418
-68794.245	-55765.079999999994	-104964.56999999999	-18636.84	0.0	0.0	0.0	0.0	0.0	0.0	0.0	0.0	0.0	0.0	0.0	0.0	0.0	0.0	145.86206896551727	0.0	0.027343680000000002	-0.0341796	1.01537826	6.9433	-1.55652	-3.052	3304457.0	1776544999.452361	0.0	1.0	-1.0	-1.0	-1.0	-1.0	-1.0	-1.0	-1.0	-1.0	0.0	marker	peace	Peace	28	0418
-68766.795	-55761.345	-104924.025	-18589.77	0.0	0.0	0.0	0.0	0.0	0.0	0.0	0.0	0.0	0.0	0.0	0.0	0.0	0.0	145.86206896551727	0.0	0.027343680000000002	-0.0341796	1.01537826	6.9433	-1.55652	-3.052	3304458.0	1776544999.452389	0.0	1.0	-1.0	-1.0	-1.0	-1.0	-1.0	-1.0	-1.0	-1.0	0.0	marker	peace	Peace	28	0418
-68790.95999999999	-55773.045	-104928.84	-18594.135	0.0	0.0	0.0	0.0	0.0	0.0	0.0	0.0	0.0	0.0	0.0	0.0	0.0	0.0	145.86206896551727	0.0	0.027343680000000002	-0.0341796	1.01537826	6.9433	-1.55652	-3.052	3304459.0	1776544999.455339	0.0	1.0	-1.0	-1.0	-1.0	-1.0	-1.0	-1.0	-1.0	-1.0	0.0	marker	peace	Peace	28	0418
-68805.135	-55786.68	-104950.98	-18632.34	0.0	0.0	0.0	0.0	0.0	0.0	0.0	0.0	0.0	0.0	0.0	0.0	0.0	0.0	145.86206896551727	0.0	0.027343680000000002	-0.0341796	1.01537826	6.9433	-1.55652	-3.052	3304460.0	1776544999.45536	0.0	1.0	-1.0	-1.0	-1.0	-1.0	-1.0	-1.0	-1.0	-1.0	0.0	marker	peace	Peace	28	0418
-68798.97	-55786.32	-104932.665	-18622.665	0.0	0.0	0.0	0.0	0.0	0.0	0.0	0.0	0.0	0.0	0.0	0.0	0.0	0.0	145.86206896551727	0.0	0.027343680000000002	-0.0341796	1.01537826	6.9433	-1.55652	-3.052	3304461.0	1776544999.458286	0.0	1.0	-1.0	-1.0	-1.0	-1.0	-1.0	-1.0	-1.0	-1.0	0.0	marker	peace	Peace	28	0418
-68762.655	-55781.954999999994	-104879.295	-18589.905	0.0	0.0	0.0	0.0	0.0	0.0	0.0	0.0	0.0	0.0	0.0	0.0	0.0	0.0	145.86206896551727	0.0	0.027343680000000002	-0.0341796	1.01537826	6.9433	-1.55652	-3.052	3304462.0	1776544999.4583	0.0	1.0	-1.0	-1.0	-1.0	-1.0	-1.0	-1.0	-1.0	-1.0	0.0	marker	peace	Peace	28	0418
-68797.62	-55777.814999999995	-104922.62999999999	-18639.63	0.0	0.0	0.0	0.0	0.0	0.0	0.0	0.0	0.0	0.0	0.0	0.0	0.0	0.0	145.86206896551727	0.0	0.024352965	-0.02941887	1.019711745	4.66956	-2.0448399999999998	-4.94424	3304463.0	1776544999.464397	0.0	1.0	-1.0	-1.0	-1.0	-1.0	-1.0	-1.0	-1.0	-1.0	0.0	marker	peace	Peace	28	0418
-68788.44	-55771.064999999995	-104920.73999999999	-18618.614999999998	0.0	0.0	0.0	0.0	0.0	0.0	0.0	0.0	0.0	0.0	0.0	0.0	0.0	0.0	145.86206896551727	0.0	0.024352965	-0.02941887	1.019711745	4.66956	-2.0448399999999998	-4.94424	3304464.0	1776544999.464411	0.0	1.0	-1.0	-1.0	-1.0	-1.0	-1.0	-1.0	-1.0	-1.0	0.0	marker	peace	Peace	28	0418
-68743.845	-55767.78	-104863.5	-18578.835	0.0	0.0	0.0	0.0	0.0	0.0	0.0	0.0	0.0	0.0	0.0	0.0	0.0	0.0	145.86206896551727	0.0	0.024352965	-0.02941887	1.019711745	4.66956	-2.0448399999999998	-4.94424	3304465.0	1776544999.466314	0.0	1.0	-1.0	-1.0	-1.0	-1.0	-1.0	-1.0	-1.0	-1.0	0.0	marker	peace	Peace	28	0418
-68818.815	-55769.939999999995	-104951.565	-18636.255	0.0	0.0	0.0	0.0	0.0	0.0	0.0	0.0	0.0	0.0	0.0	0.0	0.0	0.0	145.86206896551727	0.0	0.024352965	-0.02941887	1.019711745	4.66956	-2.0448399999999998	-4.94424	3304466.0	1776544999.466338	0.0	1.0	-1.0	-1.0	-1.0	-1.0	-1.0	-1.0	-1.0	-1.0	0.0	marker	peace	Peace	28	0418
-68723.055	-55771.829999999994	-104883.97499999999	-18556.425	0.0	0.0	0.0	0.0	0.0	0.0	0.0	0.0	0.0	0.0	0.0	0.0	0.0	0.0	145.86206896551727	0.0	0.024352965	-0.02941887	1.019711745	4.66956	-2.0448399999999998	-4.94424	3304467.0	1776544999.470285	0.0	1.0	-1.0	-1.0	-1.0	-1.0	-1.0	-1.0	-1.0	-1.0	0.0	marker	peace	Peace	28	0418
-68735.745	-55776.555	-104901.48	-18571.14	0.0	0.0	0.0	0.0	0.0	0.0	0.0	0.0	0.0	0.0	0.0	0.0	0.0	0.0	145.86206896551727	0.0	0.024352965	-0.02941887	1.019711745	4.66956	-2.0448399999999998	-4.94424	3304468.0	1776544999.470313	0.0	1.0	-1.0	-1.0	-1.0	-1.0	-1.0	-1.0	-1.0	-1.0	0.0	marker	peace	Peace	28	0418
-68842.26	-55793.52	-104996.295	-18652.77	0.0	0.0	0.0	0.0	0.0	0.0	0.0	0.0	0.0	0.0	0.0	0.0	0.0	0.0	145.86206896551727	0.0	0.024352965	-0.02941887	1.019711745	4.66956	-2.0448399999999998	-4.94424	3304469.0	1776544999.4743	0.0	1.0	-1.0	-1.0	-1.0	-1.0	-1.0	-1.0	-1.0	-1.0	0.0	marker	peace	Peace	28	0418
-68822.01	-55799.505	-104971.68	-18652.14	0.0	0.0	0.0	0.0	0.0	0.0	0.0	0.0	0.0	0.0	0.0	0.0	0.0	0.0	145.86206896551727	0.0	0.024352965	-0.02941887	1.019711745	4.66956	-2.0448399999999998	-4.94424	3304470.0	1776544999.474314	0.0	1.0	-1.0	-1.0	-1.0	-1.0	-1.0	-1.0	-1.0	-1.0	0.0	marker	peace	Peace	28	0418
-68830.875	-55805.579999999994	-104967.405	-18659.835	0.0	0.0	0.0	0.0	0.0	0.0	0.0	0.0	0.0	0.0	0.0	0.0	0.0	0.0	145.86206896551727	0.0	0.024352965	-0.02941887	1.019711745	4.66956	-2.0448399999999998	-4.94424	3304471.0	1776544999.478396	0.0	1.0	-1.0	-1.0	-1.0	-1.0	-1.0	-1.0	-1.0	-1.0	0.0	marker	peace	Peace	28	0418
-68756.94	-55797.93	-104893.69499999999	-18591.255	0.0	0.0	0.0	0.0	0.0	0.0	0.0	0.0	0.0	0.0	0.0	0.0	0.0	0.0	145.86206896551727	0.0	0.024352965	-0.02941887	1.019711745	4.66956	-2.0448399999999998	-4.94424	3304472.0	1776544999.478413	0.0	1.0	-1.0	-1.0	-1.0	-1.0	-1.0	-1.0	-1.0	-1.0	0.0	marker	peace	Peace	28	0418
-68771.79	-55795.95	-104912.28	-18599.489999999998	0.0	0.0	0.0	0.0	0.0	0.0	0.0	0.0	0.0	0.0	0.0	0.0	0.0	0.0	145.86206896551727	0.0	0.028015065	-0.023864685	1.01476791	2.71628	-1.32762	-2.60946	3304473.0	1776544999.482421	0.0	1.0	-1.0	-1.0	-1.0	-1.0	-1.0	-1.0	-1.0	-1.0	0.0	marker	peace	Peace	28	0418
-68779.70999999999	-55800.494999999995	-104929.56	-18595.305	0.0	0.0	0.0	0.0	0.0	0.0	0.0	0.0	0.0	0.0	0.0	0.0	0.0	0.0	145.86206896551727	0.0	0.028015065	-0.023864685	1.01476791	2.71628	-1.32762	-2.60946	3304474.0	1776544999.482449	0.0	1.0	-1.0	-1.0	-1.0	-1.0	-1.0	-1.0	-1.0	-1.0	0.0	marker	peace	Peace	28	0418
-68762.565	-55807.56	-104930.415	-18613.755	0.0	0.0	0.0	0.0	0.0	0.0	0.0	0.0	0.0	0.0	0.0	0.0	0.0	0.0	145.86206896551727	0.0	0.028015065	-0.023864685	1.01476791	2.71628	-1.32762	-2.60946	3304475.0	1776544999.48638	0.0	1.0	-1.0	-1.0	-1.0	-1.0	-1.0	-1.0	-1.0	-1.0	0.0	marker	peace	Peace	28	0418
-68804.595	-55812.96	-104946.345	-18646.829999999998	0.0	0.0	0.0	0.0	0.0	0.0	0.0	0.0	0.0	0.0	0.0	0.0	0.0	0.0	145.86206896551727	0.0	0.028015065	-0.023864685	1.01476791	2.71628	-1.32762	-2.60946	3304476.0	1776544999.486401	0.0	1.0	-1.0	-1.0	-1.0	-1.0	-1.0	-1.0	-1.0	-1.0	0.0	marker	peace	Peace	28	0418
-68790.375	-55822.77	-104925.42	-18624.87	0.0	0.0	0.0	0.0	0.0	0.0	0.0	0.0	0.0	0.0	0.0	0.0	0.0	0.0	145.86206896551727	0.0	0.028015065	-0.023864685	1.01476791	2.71628	-1.32762	-2.60946	3304477.0	1776544999.49034	0.0	1.0	-1.0	-1.0	-1.0	-1.0	-1.0	-1.0	-1.0	-1.0	0.0	marker	peace	Peace	28	0418
-68731.69499999999	-55842.21	-104879.34	-18578.114999999998	0.0	0.0	0.0	0.0	0.0	0.0	0.0	0.0	0.0	0.0	0.0	0.0	0.0	0.0	145.86206896551727	0.0	0.028015065	-0.023864685	1.01476791	2.71628	-1.32762	-2.60946	3304478.0	1776544999.490352	0.0	1.0	-1.0	-1.0	-1.0	-1.0	-1.0	-1.0	-1.0	-1.0	0.0	marker	peace	Peace	28	0418
-68753.11499999999	-55842.345	-104832.81	-18527.895	0.0	0.0	0.0	0.0	0.0	0.0	0.0	0.0	0.0	0.0	0.0	0.0	0.0	0.0	145.86206896551727	0.0	0.028015065	-0.023864685	1.01476791	2.71628	-1.32762	-2.60946	3304479.0	1776544999.494327	0.0	1.0	-1.0	-1.0	-1.0	-1.0	-1.0	-1.0	-1.0	-1.0	0.0	marker	peace	Peace	28	0418
-68808.555	-55836.494999999995	-104898.825	-18600.614999999998	0.0	0.0	0.0	0.0	0.0	0.0	0.0	0.0	0.0	0.0	0.0	0.0	0.0	0.0	145.86206896551727	0.0	0.028015065	-0.023864685	1.01476791	2.71628	-1.32762	-2.60946	3304480.0	1776544999.494346	0.0	1.0	-1.0	-1.0	-1.0	-1.0	-1.0	-1.0	-1.0	-1.0	0.0	marker	peace	Peace	28	0418
-68823.63	-55835.369999999995	-104931.315	-18650.61	0.0	0.0	0.0	0.0	0.0	0.0	0.0	0.0	0.0	0.0	0.0	0.0	0.0	0.0	145.86206896551727	0.0	0.028015065	-0.023864685	1.01476791	2.71628	-1.32762	-2.60946	3304481.0	1776544999.49842	0.0	1.0	-1.0	-1.0	-1.0	-1.0	-1.0	-1.0	-1.0	-1.0	0.0	marker	peace	Peace	28	0418
-68811.39	-55834.11	-104960.87999999999	-18657.045	0.0	0.0	0.0	0.0	0.0	0.0	0.0	0.0	0.0	0.0	0.0	0.0	0.0	0.0	145.86206896551727	0.0	0.028015065	-0.023864685	1.01476791	2.71628	-1.32762	-2.60946	3304482.0	1776544999.498442	0.0	1.0	-1.0	-1.0	-1.0	-1.0	-1.0	-1.0	-1.0	-1.0	0.0	marker	peace	Peace	28	0418
-68749.2	-55824.479999999996	-104858.955	-18590.805	0.0	0.0	0.0	0.0	0.0	0.0	0.0	0.0	0.0	0.0	0.0	0.0	0.0	0.0	145.86206896551727	0.0	0.04040517	-0.01806636	1.00671129	5.84458	-0.2289	-0.57988	3304483.0	1776544999.502897	0.0	1.0	-1.0	-1.0	-1.0	-1.0	-1.0	-1.0	-1.0	-1.0	0.0	marker	peace	Peace	28	0418
-68745.19499999999	-55822.59	-104794.245	-18568.125	0.0	0.0	0.0	0.0	0.0	0.0	0.0	0.0	0.0	0.0	0.0	0.0	0.0	0.0	145.86206896551727	0.0	0.04040517	-0.01806636	1.00671129	5.84458	-0.2289	-0.57988	3304484.0	1776544999.50292	0.0	1.0	-1.0	-1.0	-1.0	-1.0	-1.0	-1.0	-1.0	-1.0	0.0	marker	peace	Peace	28	0418
-68780.88	-55836.54	-104926.95	-18603.719999999998	0.0	0.0	0.0	0.0	0.0	0.0	0.0	0.0	0.0	0.0	0.0	0.0	0.0	0.0	145.86206896551727	0.0	0.04040517	-0.01806636	1.00671129	5.84458	-0.2289	-0.57988	3304485.0	1776544999.506403	0.0	1.0	-1.0	-1.0	-1.0	-1.0	-1.0	-1.0	-1.0	-1.0	0.0	marker	peace	Peace	28	0418
-68773.41	-55841.31	-105003.9	-18625.905	0.0	0.0	0.0	0.0	0.0	0.0	0.0	0.0	0.0	0.0	0.0	0.0	0.0	0.0	145.86206896551727	0.0	0.04040517	-0.01806636	1.00671129	5.84458	-0.2289	-0.57988	3304486.0	1776544999.506414	0.0	1.0	-1.0	-1.0	-1.0	-1.0	-1.0	-1.0	-1.0	-1.0	0.0	marker	peace	Peace	28	0418
-68791.59	-55782.314999999995	-104987.61	-18658.305	0.0	0.0	0.0	0.0	0.0	0.0	0.0	0.0	0.0	0.0	0.0	0.0	0.0	0.0	145.86206896551727	0.0	0.04040517	-0.01806636	1.00671129	5.84458	-0.2289	-0.57988	3304487.0	1776544999.510356	0.0	1.0	-1.0	-1.0	-1.0	-1.0	-1.0	-1.0	-1.0	-1.0	0.0	marker	peace	Peace	28	0418
-68810.13	-55678.14	-104998.815	-18685.89	0.0	0.0	0.0	0.0	0.0	0.0	0.0	0.0	0.0	0.0	0.0	0.0	0.0	0.0	145.86206896551727	0.0	0.04040517	-0.01806636	1.00671129	5.84458	-0.2289	-0.57988	3304488.0	1776544999.510369	0.0	1.0	-1.0	-1.0	-1.0	-1.0	-1.0	-1.0	-1.0	-1.0	0.0	marker	peace	Peace	28	0418
-68844.105	-55667.52	-105021.94499999999	-18703.934999999998	0.0	0.0	0.0	0.0	0.0	0.0	0.0	0.0	0.0	0.0	0.0	0.0	0.0	0.0	145.86206896551727	0.0	0.04040517	-0.01806636	1.00671129	5.84458	-0.2289	-0.57988	3304489.0	1776544999.514388	0.0	1.0	-1.0	-1.0	-1.0	-1.0	-1.0	-1.0	-1.0	-1.0	0.0	marker	peace	Peace	28	0418
-68793.165	-55674.765	-104953.545	-18627.704999999998	0.0	0.0	0.0	0.0	0.0	0.0	0.0	0.0	0.0	0.0	0.0	0.0	0.0	0.0	145.86206896551727	0.0	0.04040517	-0.01806636	1.00671129	5.84458	-0.2289	-0.57988	3304490.0	1776544999.514411	0.0	1.0	-1.0	-1.0	-1.0	-1.0	-1.0	-1.0	-1.0	-1.0	0.0	marker	peace	Peace	28	0418
-68827.455	-55696.005	-104980.86	-18646.11	0.0	0.0	0.0	0.0	0.0	0.0	0.0	0.0	0.0	0.0	0.0	0.0	0.0	0.0	145.86206896551727	0.0	0.04040517	-0.01806636	1.00671129	5.84458	-0.2289	-0.57988	3304491.0	1776544999.518529	0.0	1.0	-1.0	-1.0	-1.0	-1.0	-1.0	-1.0	-1.0	-1.0	0.0	marker	peace	Peace	28	0418
-68836.14	-55696.905	-104981.89499999999	-18647.505	0.0	0.0	0.0	0.0	0.0	0.0	0.0	0.0	0.0	0.0	0.0	0.0	0.0	0.0	145.86206896551727	0.0	0.04040517	-0.01806636	1.00671129	5.84458	-0.2289	-0.57988	3304492.0	1776544999.518551	0.0	1.0	-1.0	-1.0	-1.0	-1.0	-1.0	-1.0	-1.0	-1.0	0.0	marker	peace	Peace	28	0418
-68792.265	-55693.17	-104933.34	-18603.63	0.0	0.0	0.0	0.0	0.0	0.0	0.0	0.0	0.0	0.0	0.0	0.0	0.0	0.0	145.86206896551727	0.0	0.042541395	-0.020935005	1.009824075	5.5393799999999995	-0.06104	-0.33571999999999996	3304493.0	1776544999.52238	0.0	1.0	-1.0	-1.0	-1.0	-1.0	-1.0	-1.0	-1.0	-1.0	0.0	marker	peace	Peace	28	0418
-68755.77	-55699.244999999995	-104901.3	-18571.59	0.0	0.0	0.0	0.0	0.0	0.0	0.0	0.0	0.0	0.0	0.0	0.0	0.0	0.0	145.86206896551727	0.0	0.042541395	-0.020935005	1.009824075	5.5393799999999995	-0.06104	-0.33571999999999996	3304494.0	1776544999.522397	0.0	1.0	-1.0	-1.0	-1.0	-1.0	-1.0	-1.0	-1.0	-1.0	0.0	marker	peace	Peace	28	0418
-68710.59	-55700.235	-104889.465	-18565.695	0.0	0.0	0.0	0.0	0.0	0.0	0.0	0.0	0.0	0.0	0.0	0.0	0.0	0.0	145.86206896551727	0.0	0.042541395	-0.020935005	1.009824075	5.5393799999999995	-0.06104	-0.33571999999999996	3304495.0	1776544999.526421	0.0	1.0	-1.0	-1.0	-1.0	-1.0	-1.0	-1.0	-1.0	-1.0	0.0	marker	peace	Peace	28	0418
-68785.33499999999	-55691.325	-104927.715	-18590.85	0.0	0.0	0.0	0.0	0.0	0.0	0.0	0.0	0.0	0.0	0.0	0.0	0.0	0.0	145.86206896551727	0.0	0.042541395	-0.020935005	1.009824075	5.5393799999999995	-0.06104	-0.33571999999999996	3304496.0	1776544999.526436	0.0	1.0	-1.0	-1.0	-1.0	-1.0	-1.0	-1.0	-1.0	-1.0	0.0	marker	peace	Peace	28	0418
-68826.19499999999	-55684.439999999995	-104937.165	-18623.52	0.0	0.0	0.0	0.0	0.0	0.0	0.0	0.0	0.0	0.0	0.0	0.0	0.0	0.0	145.86206896551727	0.0	0.042541395	-0.020935005	1.009824075	5.5393799999999995	-0.06104	-0.33571999999999996	3304497.0	1776544999.530447	0.0	1.0	-1.0	-1.0	-1.0	-1.0	-1.0	-1.0	-1.0	-1.0	0.0	marker	peace	Peace	28	0418
-68800.36499999999	-55701.765	-104939.955	-18628.335	0.0	0.0	0.0	0.0	0.0	0.0	0.0	0.0	0.0	0.0	0.0	0.0	0.0	0.0	145.86206896551727	0.0	0.042541395	-0.020935005	1.009824075	5.5393799999999995	-0.06104	-0.33571999999999996	3304498.0	1776544999.530464	0.0	1.0	-1.0	-1.0	-1.0	-1.0	-1.0	-1.0	-1.0	-1.0	0.0	marker	peace	Peace	28	0418
-68837.13	-55720.305	-104987.295	-18685.665	0.0	0.0	0.0	0.0	0.0	0.0	0.0	0.0	0.0	0.0	0.0	0.0	0.0	0.0	145.86206896551727	0.0	0.042541395	-0.020935005	1.009824075	5.5393799999999995	-0.06104	-0.33571999999999996	3304499.0	1776544999.534571	0.0	1.0	-1.0	-1.0	-1.0	-1.0	-1.0	-1.0	-1.0	-1.0	0.0	marker	peace	Peace	28	0418
-68827.635	-55724.67	-104951.43	-18651.239999999998	0.0	0.0	0.0	0.0	0.0	0.0	0.0	0.0	0.0	0.0	0.0	0.0	0.0	0.0	145.86206896551727	0.0	0.042541395	-0.020935005	1.009824075	5.5393799999999995	-0.06104	-0.33571999999999996	3304500.0	1776544999.534587	0.0	1.0	-1.0	-1.0	-1.0	-1.0	-1.0	-1.0	-1.0	-1.0	0.0	marker	peace	Peace	28	0418
-68769.495	-55737.854999999996	-104937.705	-18629.55	0.0	0.0	0.0	0.0	0.0	0.0	0.0	0.0	0.0	0.0	0.0	0.0	0.0	0.0	145.86206896551727	0.0	0.042541395	-0.020935005	1.009824075	5.5393799999999995	-0.06104	-0.33571999999999996	3304501.0	1776544999.538417	0.0	1.0	-1.0	-1.0	-1.0	-1.0	-1.0	-1.0	-1.0	-1.0	0.0	marker	peace	Peace	28	0418
-68763.555	-55756.079999999994	-104927.08499999999	-18628.2	0.0	0.0	0.0	0.0	0.0	0.0	0.0	0.0	0.0	0.0	0.0	0.0	0.0	0.0	145.86206896551727	0.0	0.042541395	-0.020935005	1.009824075	5.5393799999999995	-0.06104	-0.33571999999999996	3304502.0	1776544999.538439	0.0	1.0	-1.0	-1.0	-1.0	-1.0	-1.0	-1.0	-1.0	-1.0	0.0	marker	peace	Peace	28	0418
-68773.635	-55762.695	-104905.17	-18610.875	0.0	0.0	0.0	0.0	0.0	0.0	0.0	0.0	0.0	0.0	0.0	0.0	0.0	0.0	145.86206896551727	0.0	0.040710345	-0.01647945	1.0107396	1.8312	0.16785999999999998	0.5341	3304503.0	1776544999.542472	0.0	1.0	-1.0	-1.0	-1.0	-1.0	-1.0	-1.0	-1.0	-1.0	0.0	marker	peace	Peace	28	0418
-68785.605	-55760.265	-104915.385	-18597.329999999998	0.0	0.0	0.0	0.0	0.0	0.0	0.0	0.0	0.0	0.0	0.0	0.0	0.0	0.0	145.86206896551727	0.0	0.040710345	-0.01647945	1.0107396	1.8312	0.16785999999999998	0.5341	3304504.0	1776544999.542483	0.0	1.0	-1.0	-1.0	-1.0	-1.0	-1.0	-1.0	-1.0	-1.0	0.0	marker	peace	Peace	28	0418
-68808.69	-55751.579999999994	-104973.39	-18635.985	0.0	0.0	0.0	0.0	0.0	0.0	0.0	0.0	0.0	0.0	0.0	0.0	0.0	0.0	145.86206896551727	0.0	0.040710345	-0.01647945	1.0107396	1.8312	0.16785999999999998	0.5341	3304505.0	1776544999.546488	0.0	1.0	-1.0	-1.0	-1.0	-1.0	-1.0	-1.0	-1.0	-1.0	0.0	marker	peace	Peace	28	0418
-68759.86499999999	-55725.39	-104924.7	-18603.315	0.0	0.0	0.0	0.0	0.0	0.0	0.0	0.0	0.0	0.0	0.0	0.0	0.0	0.0	145.86206896551727	0.0	0.040710345	-0.01647945	1.0107396	1.8312	0.16785999999999998	0.5341	3304506.0	1776544999.54651	0.0	1.0	-1.0	-1.0	-1.0	-1.0	-1.0	-1.0	-1.0	-1.0	0.0	marker	peace	Peace	28	0418
-68760.765	-55724.445	-104918.84999999999	-18597.195	0.0	0.0	0.0	0.0	0.0	0.0	0.0	0.0	0.0	0.0	0.0	0.0	0.0	0.0	145.86206896551727	0.0	0.040710345	-0.01647945	1.0107396	1.8312	0.16785999999999998	0.5341	3304507.0	1776544999.550449	0.0	1.0	-1.0	-1.0	-1.0	-1.0	-1.0	-1.0	-1.0	-1.0	0.0	marker	peace	Peace	28	0418
-68841.27	-55729.799999999996	-104979.87	-18658.53	0.0	0.0	0.0	0.0	0.0	0.0	0.0	0.0	0.0	0.0	0.0	0.0	0.0	0.0	145.86206896551727	0.0	0.040710345	-0.01647945	1.0107396	1.8312	0.16785999999999998	0.5341	3304508.0	1776544999.550468	0.0	1.0	-1.0	-1.0	-1.0	-1.0	-1.0	-1.0	-1.0	-1.0	0.0	marker	peace	Peace	28	0418
-68794.02	-55734.704999999994	-104930.01	-18615.69	0.0	0.0	0.0	0.0	0.0	0.0	0.0	0.0	0.0	0.0	0.0	0.0	0.0	0.0	145.86206896551727	0.0	0.040710345	-0.01647945	1.0107396	1.8312	0.16785999999999998	0.5341	3304509.0	1776544999.554704	0.0	1.0	-1.0	-1.0	-1.0	-1.0	-1.0	-1.0	-1.0	-1.0	0.0	marker	peace	Peace	28	0418
-68820.48	-55743.704999999994	-104973.165	-18621.765	0.0	0.0	0.0	0.0	0.0	0.0	0.0	0.0	0.0	0.0	0.0	0.0	0.0	0.0	145.86206896551727	0.0	0.040710345	-0.01647945	1.0107396	1.8312	0.16785999999999998	0.5341	3304510.0	1776544999.554726	0.0	1.0	-1.0	-1.0	-1.0	-1.0	-1.0	-1.0	-1.0	-1.0	0.0	marker	peace	Peace	28	0418
-68782.95	-55743.345	-104980.59	-18624.105	0.0	0.0	0.0	0.0	0.0	0.0	0.0	0.0	0.0	0.0	0.0	0.0	0.0	0.0	145.86206896551727	0.0	0.040710345	-0.01647945	1.0107396	1.8312	0.16785999999999998	0.5341	3304511.0	1776544999.560779	0.0	1.0	-1.0	-1.0	-1.0	-1.0	-1.0	-1.0	-1.0	-1.0	0.0	marker	peace	Peace	28	0418
-68799.23999999999	-55733.13	-104953.76999999999	-18628.11	0.0	0.0	0.0	0.0	0.0	0.0	0.0	0.0	0.0	0.0	0.0	0.0	0.0	0.0	145.86206896551727	0.0	0.040710345	-0.01647945	1.0107396	1.8312	0.16785999999999998	0.5341	3304512.0	1776544999.560795	0.0	1.0	-1.0	-1.0	-1.0	-1.0	-1.0	-1.0	-1.0	-1.0	0.0	marker	peace	Peace	28	0418
-68811.12	-55727.369999999995	-104941.125	-18631.71	0.0	0.0	0.0	0.0	0.0	0.0	0.0	0.0	0.0	0.0	0.0	0.0	0.0	0.0	145.86206896551727	0.0	0.04064931	-0.02160639	1.015927575	0.27468	-0.06104	0.28994	3304513.0	1776544999.566837	0.0	1.0	-1.0	-1.0	-1.0	-1.0	-1.0	-1.0	-1.0	-1.0	0.0	marker	peace	Peace	28	0418
-68754.33	-55718.775	-104895.62999999999	-18578.25	0.0	0.0	0.0	0.0	0.0	0.0	0.0	0.0	0.0	0.0	0.0	0.0	0.0	0.0	145.86206896551727	0.0	0.04064931	-0.02160639	1.015927575	0.27468	-0.06104	0.28994	3304514.0	1776544999.566857	0.0	1.0	-1.0	-1.0	-1.0	-1.0	-1.0	-1.0	-1.0	-1.0	0.0	marker	peace	Peace	28	0418
-68788.305	-55720.71	-104946.20999999999	-18635.309999999998	0.0	0.0	0.0	0.0	0.0	0.0	0.0	0.0	0.0	0.0	0.0	0.0	0.0	0.0	145.86206896551727	0.0	0.04064931	-0.02160639	1.015927575	0.27468	-0.06104	0.28994	3304515.0	1776544999.566874	0.0	1.0	-1.0	-1.0	-1.0	-1.0	-1.0	-1.0	-1.0	-1.0	0.0	marker	peace	Peace	28	0418
-68794.56	-55737.314999999995	-104943.825	-18634.14	0.0	0.0	0.0	0.0	0.0	0.0	0.0	0.0	0.0	0.0	0.0	0.0	0.0	0.0	145.86206896551727	0.0	0.04064931	-0.02160639	1.015927575	0.27468	-0.06104	0.28994	3304516.0	1776544999.566886	0.0	1.0	-1.0	-1.0	-1.0	-1.0	-1.0	-1.0	-1.0	-1.0	0.0	marker	peace	Peace	28	0418
-68734.305	-55738.35	-104874.705	-18571.41	0.0	0.0	0.0	0.0	0.0	0.0	0.0	0.0	0.0	0.0	0.0	0.0	0.0	0.0	145.86206896551727	0.0	0.04064931	-0.02160639	1.015927575	0.27468	-0.06104	0.28994	3304517.0	1776544999.571039	0.0	1.0	-1.0	-1.0	-1.0	-1.0	-1.0	-1.0	-1.0	-1.0	0.0	marker	peace	Peace	28	0418
-68742.81	-55738.395	-104846.67	-18557.1	0.0	0.0	0.0	0.0	0.0	0.0	0.0	0.0	0.0	0.0	0.0	0.0	0.0	0.0	145.86206896551727	0.0	0.04064931	-0.02160639	1.015927575	0.27468	-0.06104	0.28994	3304518.0	1776544999.571071	0.0	1.0	-1.0	-1.0	-1.0	-1.0	-1.0	-1.0	-1.0	-1.0	0.0	marker	peace	Peace	28	0418
-68808.015	-55745.82	-104904.045	-18622.53	0.0	0.0	0.0	0.0	0.0	0.0	0.0	0.0	0.0	0.0	0.0	0.0	0.0	0.0	145.86206896551727	0.0	0.04064931	-0.02160639	1.015927575	0.27468	-0.06104	0.28994	3304519.0	1776544999.574573	0.0	1.0	-1.0	-1.0	-1.0	-1.0	-1.0	-1.0	-1.0	-1.0	0.0	marker	peace	Peace	28	0418
-68814.09	-55740.329999999994	-104923.70999999999	-18644.895	0.0	0.0	0.0	0.0	0.0	0.0	0.0	0.0	0.0	0.0	0.0	0.0	0.0	0.0	145.86206896551727	0.0	0.04064931	-0.02160639	1.015927575	0.27468	-0.06104	0.28994	3304520.0	1776544999.574593	0.0	1.0	-1.0	-1.0	-1.0	-1.0	-1.0	-1.0	-1.0	-1.0	0.0	marker	peace	Peace	28	0418
-68780.43	-55720.799999999996	-104878.53	-18621.719999999998	0.0	0.0	0.0	0.0	0.0	0.0	0.0	0.0	0.0	0.0	0.0	0.0	0.0	0.0	145.86206896551727	0.0	0.04064931	-0.02160639	1.015927575	0.27468	-0.06104	0.28994	3304521.0	1776544999.583059	0.0	1.0	-1.0	-1.0	-1.0	-1.0	-1.0	-1.0	-1.0	-1.0	0.0	marker	peace	Peace	28	0418
-68785.965	-55710.674999999996	-104853.23999999999	-18616.094999999998	0.0	0.0	0.0	0.0	0.0	0.0	0.0	0.0	0.0	0.0	0.0	0.0	0.0	0.0	145.86206896551727	0.0	0.04064931	-0.02160639	1.015927575	0.27468	-0.06104	0.28994	3304522.0	1776544999.583083	0.0	1.0	-1.0	-1.0	-1.0	-1.0	-1.0	-1.0	-1.0	-1.0	0.0	marker	peace	Peace	28	0418
-68829.48	-55711.935	-104947.875	-18661.184999999998	0.0	0.0	0.0	0.0	0.0	0.0	0.0	0.0	0.0	0.0	0.0	0.0	0.0	0.0	145.86206896551727	0.0	0.03271476	-0.035705475	1.015683435	3.5098	-0.07629999999999999	-0.50358	3304523.0	1776544999.583106	0.0	1.0	-1.0	-1.0	-1.0	-1.0	-1.0	-1.0	-1.0	-1.0	0.0	marker	peace	Peace	28	0418
-68835.465	-55713.42	-105019.56	-18674.37	0.0	0.0	0.0	0.0	0.0	0.0	0.0	0.0	0.0	0.0	0.0	0.0	0.0	0.0	145.86206896551727	0.0	0.03271476	-0.035705475	1.015683435	3.5098	-0.07629999999999999	-0.50358	3304524.0	1776544999.583123	0.0	1.0	-1.0	-1.0	-1.0	-1.0	-1.0	-1.0	-1.0	-1.0	0.0	marker	peace	Peace	28	0418
-68814.315	-55716.119999999995	-105014.565	-18629.64	0.0	0.0	0.0	0.0	0.0	0.0	0.0	0.0	0.0	0.0	0.0	0.0	0.0	0.0	145.86206896551727	0.0	0.03271476	-0.035705475	1.015683435	3.5098	-0.07629999999999999	-0.50358	3304525.0	1776544999.588558	0.0	1.0	-1.0	-1.0	-1.0	-1.0	-1.0	-1.0	-1.0	-1.0	0.0	marker	peace	Peace	28	0418
-68779.755	-55718.415	-104931.98999999999	-18597.239999999998	0.0	0.0	0.0	0.0	0.0	0.0	0.0	0.0	0.0	0.0	0.0	0.0	0.0	0.0	145.86206896551727	0.0	0.03271476	-0.035705475	1.015683435	3.5098	-0.07629999999999999	-0.50358	3304526.0	1776544999.588597	0.0	1.0	-1.0	-1.0	-1.0	-1.0	-1.0	-1.0	-1.0	-1.0	0.0	marker	peace	Peace	28	0418
-68762.88	-55722.42	-104901.705	-18589.454999999998	0.0	0.0	0.0	0.0	0.0	0.0	0.0	0.0	0.0	0.0	0.0	0.0	0.0	0.0	145.86206896551727	0.0	0.03271476	-0.035705475	1.015683435	3.5098	-0.07629999999999999	-0.50358	3304527.0	1776544999.590638	0.0	1.0	-1.0	-1.0	-1.0	-1.0	-1.0	-1.0	-1.0	-1.0	0.0	marker	peace	Peace	28	0418
-68778.495	-55725.75	-104925.69	-18597.735	0.0	0.0	0.0	0.0	0.0	0.0	0.0	0.0	0.0	0.0	0.0	0.0	0.0	0.0	145.86206896551727	0.0	0.03271476	-0.035705475	1.015683435	3.5098	-0.07629999999999999	-0.50358	3304528.0	1776544999.590662	0.0	1.0	-1.0	-1.0	-1.0	-1.0	-1.0	-1.0	-1.0	-1.0	0.0	marker	peace	Peace	28	0418
-68782.14	-55725.795	-104925.59999999999	-18594.045	0.0	0.0	0.0	0.0	0.0	0.0	0.0	0.0	0.0	0.0	0.0	0.0	0.0	0.0	145.86206896551727	0.0	0.03271476	-0.035705475	1.015683435	3.5098	-0.07629999999999999	-0.50358	3304529.0	1776544999.594603	0.0	1.0	-1.0	-1.0	-1.0	-1.0	-1.0	-1.0	-1.0	-1.0	0.0	marker	peace	Peace	28	0418
-68777.955	-55715.67	-104933.43	-18604.125	0.0	0.0	0.0	0.0	0.0	0.0	0.0	0.0	0.0	0.0	0.0	0.0	0.0	0.0	145.86206896551727	0.0	0.03271476	-0.035705475	1.015683435	3.5098	-0.07629999999999999	-0.50358	3304530.0	1776544999.594621	0.0	1.0	-1.0	-1.0	-1.0	-1.0	-1.0	-1.0	-1.0	-1.0	0.0	marker	peace	Peace	28	0418
-68777.775	-55710.09	-104933.34	-18612.405	0.0	0.0	0.0	0.0	0.0	0.0	0.0	0.0	0.0	0.0	0.0	0.0	0.0	0.0	145.86206896551727	0.0	0.03271476	-0.035705475	1.015683435	3.5098	-0.07629999999999999	-0.50358	3304531.0	1776544999.600076	0.0	1.0	-1.0	-1.0	-1.0	-1.0	-1.0	-1.0	-1.0	-1.0	0.0	marker	peace	Peace	28	0418
-68736.15	-55701.045	-104881.31999999999	-18581.355	0.0	0.0	0.0	0.0	0.0	0.0	0.0	0.0	0.0	0.0	0.0	0.0	0.0	0.0	145.86206896551727	0.0	0.03271476	-0.035705475	1.015683435	3.5098	-0.07629999999999999	-0.50358	3304532.0	1776544999.600105	0.0	1.0	-1.0	-1.0	-1.0	-1.0	-1.0	-1.0	-1.0	-1.0	0.0	marker	peace	Peace	28	0418
-68702.58	-55683.63	-104830.245	-18535.995	0.0	0.0	0.0	0.0	0.0	0.0	0.0	0.0	0.0	0.0	0.0	0.0	0.0	0.0	145.86206896551727	0.0	0.030944745	-0.03283683	1.01977278	4.53222	-0.2289	0.79352	3304533.0	1776544999.602758	0.0	1.0	-1.0	-1.0	-1.0	-1.0	-1.0	-1.0	-1.0	-1.0	0.0	marker	peace	Peace	28	0418
-68841.36	-55684.755	-104938.69499999999	-18612.945	0.0	0.0	0.0	0.0	0.0	0.0	0.0	0.0	0.0	0.0	0.0	0.0	0.0	0.0	145.86206896551727	0.0	0.030944745	-0.03283683	1.01977278	4.53222	-0.2289	0.79352	3304534.0	1776544999.602787	0.0	1.0	-1.0	-1.0	-1.0	-1.0	-1.0	-1.0	-1.0	-1.0	0.0	marker	peace	Peace	28	0418
-68807.52	-55690.29	-104975.28	-18631.035	0.0	0.0	0.0	0.0	0.0	0.0	0.0	0.0	0.0	0.0	0.0	0.0	0.0	0.0	145.86206896551727	0.0	0.030944745	-0.03283683	1.01977278	4.53222	-0.2289	0.79352	3304535.0	1776544999.606736	0.0	1.0	-1.0	-1.0	-1.0	-1.0	-1.0	-1.0	-1.0	-1.0	0.0	marker	peace	Peace	28	0418
-68721.3	-55687.814999999995	-104903.235	-18566.864999999998	0.0	0.0	0.0	0.0	0.0	0.0	0.0	0.0	0.0	0.0	0.0	0.0	0.0	0.0	145.86206896551727	0.0	0.030944745	-0.03283683	1.01977278	4.53222	-0.2289	0.79352	3304536.0	1776544999.606758	0.0	1.0	-1.0	-1.0	-1.0	-1.0	-1.0	-1.0	-1.0	-1.0	0.0	marker	peace	Peace	28	0418
-68803.425	-55693.89	-104976.45	-18641.79	0.0	0.0	0.0	0.0	0.0	0.0	0.0	0.0	0.0	0.0	0.0	0.0	0.0	0.0	145.86206896551727	0.0	0.030944745	-0.03283683	1.01977278	4.53222	-0.2289	0.79352	3304537.0	1776544999.610768	0.0	1.0	-1.0	-1.0	-1.0	-1.0	-1.0	-1.0	-1.0	-1.0	0.0	marker	peace	Peace	28	0418
-68792.67	-55693.755	-104962.635	-18623.88	0.0	0.0	0.0	0.0	0.0	0.0	0.0	0.0	0.0	0.0	0.0	0.0	0.0	0.0	145.86206896551727	0.0	0.030944745	-0.03283683	1.01977278	4.53222	-0.2289	0.79352	3304538.0	1776544999.610787	0.0	1.0	-1.0	-1.0	-1.0	-1.0	-1.0	-1.0	-1.0	-1.0	0.0	marker	peace	Peace	28	0418
-68804.595	-55690.56	-104949.315	-18639.855	0.0	0.0	0.0	0.0	0.0	0.0	0.0	0.0	0.0	0.0	0.0	0.0	0.0	0.0	145.86206896551727	0.0	0.030944745	-0.03283683	1.01977278	4.53222	-0.2289	0.79352	3304539.0	1776544999.614818	0.0	1.0	-1.0	-1.0	-1.0	-1.0	-1.0	-1.0	-1.0	-1.0	0.0	marker	peace	Peace	28	0418
-68805.045	-55693.439999999995	-104948.14499999999	-18645.21	0.0	0.0	0.0	0.0	0.0	0.0	0.0	0.0	0.0	0.0	0.0	0.0	0.0	0.0	145.86206896551727	0.0	0.030944745	-0.03283683	1.01977278	4.53222	-0.2289	0.79352	3304540.0	1776544999.614845	0.0	1.0	-1.0	-1.0	-1.0	-1.0	-1.0	-1.0	-1.0	-1.0	0.0	marker	peace	Peace	28	0418
-68830.11	-55704.24	-104975.14499999999	-18659.835	0.0	0.0	0.0	0.0	0.0	0.0	0.0	0.0	0.0	0.0	0.0	0.0	0.0	0.0	145.86206896551727	0.0	0.030944745	-0.03283683	1.01977278	4.53222	-0.2289	0.79352	3304541.0	1776544999.618733	0.0	1.0	-1.0	-1.0	-1.0	-1.0	-1.0	-1.0	-1.0	-1.0	0.0	marker	peace	Peace	28	0418
-68824.395	-55714.59	-104974.73999999999	-18669.555	0.0	0.0	0.0	0.0	0.0	0.0	0.0	0.0	0.0	0.0	0.0	0.0	0.0	0.0	145.86206896551727	0.0	0.030944745	-0.03283683	1.01977278	4.53222	-0.2289	0.79352	3304542.0	1776544999.618754	0.0	1.0	-1.0	-1.0	-1.0	-1.0	-1.0	-1.0	-1.0	-1.0	0.0	marker	peace	Peace	28	0418
-68833.98	-55715.04	-104991.61499999999	-18679.86	0.0	0.0	0.0	0.0	0.0	0.0	0.0	0.0	0.0	0.0	0.0	0.0	0.0	0.0	145.86206896551727	0.0	0.03271476	-0.02880852	1.0192845	3.4945399999999998	0.03052	1.05294	3304543.0	1776544999.622715	0.0	1.0	-1.0	-1.0	-1.0	-1.0	-1.0	-1.0	-1.0	-1.0	0.0	marker	peace	Peace	28	0418
-68829.56999999999	-55726.2	-104976.495	-18646.155	0.0	0.0	0.0	0.0	0.0	0.0	0.0	0.0	0.0	0.0	0.0	0.0	0.0	0.0	145.86206896551727	0.0	0.03271476	-0.02880852	1.0192845	3.4945399999999998	0.03052	1.05294	3304544.0	1776544999.622739	0.0	1.0	-1.0	-1.0	-1.0	-1.0	-1.0	-1.0	-1.0	-1.0	0.0	marker	peace	Peace	28	0418
-68804.145	-55730.159999999996	-104951.745	-18622.305	0.0	0.0	0.0	0.0	0.0	0.0	0.0	0.0	0.0	0.0	0.0	0.0	0.0	0.0	145.86206896551727	0.0	0.03271476	-0.02880852	1.0192845	3.4945399999999998	0.03052	1.05294	3304545.0	1776544999.626787	0.0	1.0	-1.0	-1.0	-1.0	-1.0	-1.0	-1.0	-1.0	-1.0	0.0	marker	peace	Peace	28	0418
-68774.94	-55717.38	-104927.355	-18610.739999999998	0.0	0.0	0.0	0.0	0.0	0.0	0.0	0.0	0.0	0.0	0.0	0.0	0.0	0.0	145.86206896551727	0.0	0.03271476	-0.02880852	1.0192845	3.4945399999999998	0.03052	1.05294	3304546.0	1776544999.626811	0.0	1.0	-1.0	-1.0	-1.0	-1.0	-1.0	-1.0	-1.0	-1.0	0.0	marker	peace	Peace	28	0418
-68694.39	-55703.295	-104861.25	-18540.54	0.0	0.0	0.0	0.0	0.0	0.0	0.0	0.0	0.0	0.0	0.0	0.0	0.0	0.0	145.86206896551727	0.0	0.03271476	-0.02880852	1.0192845	3.4945399999999998	0.03052	1.05294	3304547.0	1776544999.630862	0.0	1.0	-1.0	-1.0	-1.0	-1.0	-1.0	-1.0	-1.0	-1.0	0.0	marker	peace	Peace	28	0418
-68739.39	-55703.159999999996	-104903.28	-18576.855	0.0	0.0	0.0	0.0	0.0	0.0	0.0	0.0	0.0	0.0	0.0	0.0	0.0	0.0	145.86206896551727	0.0	0.03271476	-0.02880852	1.0192845	3.4945399999999998	0.03052	1.05294	3304548.0	1776544999.630882	0.0	1.0	-1.0	-1.0	-1.0	-1.0	-1.0	-1.0	-1.0	-1.0	0.0	marker	peace	Peace	28	0418
-68803.73999999999	-55703.61	-104925.06	-18608.535	0.0	0.0	0.0	0.0	0.0	0.0	0.0	0.0	0.0	0.0	0.0	0.0	0.0	0.0	145.86206896551727	0.0	0.03271476	-0.02880852	1.0192845	3.4945399999999998	0.03052	1.05294	3304549.0	1776544999.63492	0.0	1.0	-1.0	-1.0	-1.0	-1.0	-1.0	-1.0	-1.0	-1.0	0.0	marker	peace	Peace	28	0418
-68817.105	-55701.72	-104944.72499999999	-18623.43	0.0	0.0	0.0	0.0	0.0	0.0	0.0	0.0	0.0	0.0	0.0	0.0	0.0	0.0	145.86206896551727	0.0	0.03271476	-0.02880852	1.0192845	3.4945399999999998	0.03052	1.05294	3304550.0	1776544999.634944	0.0	1.0	-1.0	-1.0	-1.0	-1.0	-1.0	-1.0	-1.0	-1.0	0.0	marker	peace	Peace	28	0418
-68849.86499999999	-55698.884999999995	-104977.75499999999	-18672.12	0.0	0.0	0.0	0.0	0.0	0.0	0.0	0.0	0.0	0.0	0.0	0.0	0.0	0.0	145.86206896551727	0.0	0.03271476	-0.02880852	1.0192845	3.4945399999999998	0.03052	1.05294	3304551.0	1776544999.641921	0.0	1.0	-1.0	-1.0	-1.0	-1.0	-1.0	-1.0	-1.0	-1.0	0.0	marker	peace	Peace	28	0418
-68802.255	-55688.085	-104927.4	-18631.125	0.0	0.0	0.0	0.0	0.0	0.0	0.0	0.0	0.0	0.0	0.0	0.0	0.0	0.0	145.86206896551727	0.0	0.03271476	-0.02880852	1.0192845	3.4945399999999998	0.03052	1.05294	3304552.0	1776544999.641944	0.0	1.0	-1.0	-1.0	-1.0	-1.0	-1.0	-1.0	-1.0	-1.0	0.0	marker	peace	Peace	28	0418
-68755.77	-55682.729999999996	-104908.23	-18592.515	0.0	0.0	0.0	0.0	0.0	0.0	0.0	0.0	0.0	0.0	0.0	0.0	0.0	0.0	145.86206896551727	0.0	0.035705475	-0.036437895	1.016537925	5.7835399999999995	0.35097999999999996	-0.2289	3304553.0	1776544999.644023	0.0	1.0	-1.0	-1.0	-1.0	-1.0	-1.0	-1.0	-1.0	-1.0	0.0	marker	peace	Peace	28	0418
-68797.08	-55674.405	-104929.37999999999	-18616.23	0.0	0.0	0.0	0.0	0.0	0.0	0.0	0.0	0.0	0.0	0.0	0.0	0.0	0.0	145.86206896551727	0.0	0.035705475	-0.036437895	1.016537925	5.7835399999999995	0.35097999999999996	-0.2289	3304554.0	1776544999.644038	0.0	1.0	-1.0	-1.0	-1.0	-1.0	-1.0	-1.0	-1.0	-1.0	0.0	marker	peace	Peace	28	0418
-68843.34	-55669.275	-104970.19499999999	-18649.98	0.0	0.0	0.0	0.0	0.0	0.0	0.0	0.0	0.0	0.0	0.0	0.0	0.0	0.0	145.86206896551727	0.0	0.035705475	-0.036437895	1.016537925	5.7835399999999995	0.35097999999999996	-0.2289	3304555.0	1776544999.649781	0.0	1.0	-1.0	-1.0	-1.0	-1.0	-1.0	-1.0	-1.0	-1.0	0.0	marker	peace	Peace	28	0418
-68740.245	-55665.494999999995	-104924.655	-18590.445	0.0	0.0	0.0	0.0	0.0	0.0	0.0	0.0	0.0	0.0	0.0	0.0	0.0	0.0	145.86206896551727	0.0	0.035705475	-0.036437895	1.016537925	5.7835399999999995	0.35097999999999996	-0.2289	3304556.0	1776544999.649812	0.0	1.0	-1.0	-1.0	-1.0	-1.0	-1.0	-1.0	-1.0	-1.0	0.0	marker	peace	Peace	28	0418
-68747.715	-55660.409999999996	-104950.39499999999	-18608.94	0.0	0.0	0.0	0.0	0.0	0.0	0.0	0.0	0.0	0.0	0.0	0.0	0.0	0.0	145.86206896551727	0.0	0.035705475	-0.036437895	1.016537925	5.7835399999999995	0.35097999999999996	-0.2289	3304557.0	1776544999.651675	0.0	1.0	-1.0	-1.0	-1.0	-1.0	-1.0	-1.0	-1.0	-1.0	0.0	marker	peace	Peace	28	0418
-68832.72	-55659.555	-104988.105	-18663.344999999998	0.0	0.0	0.0	0.0	0.0	0.0	0.0	0.0	0.0	0.0	0.0	0.0	0.0	0.0	145.86206896551727	0.0	0.035705475	-0.036437895	1.016537925	5.7835399999999995	0.35097999999999996	-0.2289	3304558.0	1776544999.651694	0.0	1.0	-1.0	-1.0	-1.0	-1.0	-1.0	-1.0	-1.0	-1.0	0.0	marker	peace	Peace	28	0418
-68807.745	-55664.325	-104945.84999999999	-18607.274999999998	0.0	0.0	0.0	0.0	0.0	0.0	0.0	0.0	0.0	0.0	0.0	0.0	0.0	0.0	145.86206896551727	0.0	0.035705475	-0.036437895	1.016537925	5.7835399999999995	0.35097999999999996	-0.2289	3304559.0	1776544999.657161	0.0	1.0	-1.0	-1.0	-1.0	-1.0	-1.0	-1.0	-1.0	-1.0	0.0	marker	peace	Peace	28	0418
-68796.675	-55670.354999999996	-104928.48	-18593.954999999998	0.0	0.0	0.0	0.0	0.0	0.0	0.0	0.0	0.0	0.0	0.0	0.0	0.0	0.0	145.86206896551727	0.0	0.035705475	-0.036437895	1.016537925	5.7835399999999995	0.35097999999999996	-0.2289	3304560.0	1776544999.657188	0.0	1.0	-1.0	-1.0	-1.0	-1.0	-1.0	-1.0	-1.0	-1.0	0.0	marker	peace	Peace	28	0418
-68770.17	-55667.204999999994	-104883.25499999999	-18584.505	0.0	0.0	0.0	0.0	0.0	0.0	0.0	0.0	0.0	0.0	0.0	0.0	0.0	0.0	145.86206896551727	0.0	0.035705475	-0.036437895	1.016537925	5.7835399999999995	0.35097999999999996	-0.2289	3304561.0	1776544999.663222	0.0	1.0	-1.0	-1.0	-1.0	-1.0	-1.0	-1.0	-1.0	-1.0	0.0	marker	peace	Peace	28	0418
-68785.02	-55660.5	-104897.205	-18602.01	0.0	0.0	0.0	0.0	0.0	0.0	0.0	0.0	0.0	0.0	0.0	0.0	0.0	0.0	145.86206896551727	0.0	0.035705475	-0.036437895	1.016537925	5.7835399999999995	0.35097999999999996	-0.2289	3304562.0	1776544999.663238	0.0	1.0	-1.0	-1.0	-1.0	-1.0	-1.0	-1.0	-1.0	-1.0	0.0	marker	peace	Peace	28	0418
-68787.855	-55658.025	-104920.875	-18600.12	0.0	0.0	0.0	0.0	0.0	0.0	0.0	0.0	0.0	0.0	0.0	0.0	0.0	0.0	145.86206896551727	0.0	0.035827545	-0.03869619	1.019101395	5.478339999999999	-0.13734	-1.1444999999999999	3304563.0	1776544999.666482	0.0	1.0	-1.0	-1.0	-1.0	-1.0	-1.0	-1.0	-1.0	-1.0	0.0	marker	peace	Peace	28	0418
-68812.69499999999	-55662.119999999995	-104938.83	-18637.829999999998	0.0	0.0	0.0	0.0	0.0	0.0	0.0	0.0	0.0	0.0	0.0	0.0	0.0	0.0	145.86206896551727	0.0	0.035827545	-0.03869619	1.019101395	5.478339999999999	-0.13734	-1.1444999999999999	3304564.0	1776544999.6665	0.0	1.0	-1.0	-1.0	-1.0	-1.0	-1.0	-1.0	-1.0	-1.0	0.0	marker	peace	Peace	28	0418
-68826.69	-55663.47	-104948.73	-18663.795	0.0	0.0	0.0	0.0	0.0	0.0	0.0	0.0	0.0	0.0	0.0	0.0	0.0	0.0	145.86206896551727	0.0	0.035827545	-0.03869619	1.019101395	5.478339999999999	-0.13734	-1.1444999999999999	3304565.0	1776544999.669083	0.0	1.0	-1.0	-1.0	-1.0	-1.0	-1.0	-1.0	-1.0	-1.0	0.0	marker	peace	Peace	28	0418
-68840.28	-55671.165	-104993.01	-18684.719999999998	0.0	0.0	0.0	0.0	0.0	0.0	0.0	0.0	0.0	0.0	0.0	0.0	0.0	0.0	145.86206896551727	0.0	0.035827545	-0.03869619	1.019101395	5.478339999999999	-0.13734	-1.1444999999999999	3304566.0	1776544999.66911	0.0	1.0	-1.0	-1.0	-1.0	-1.0	-1.0	-1.0	-1.0	-1.0	0.0	marker	peace	Peace	28	0418
