ch_0	ch_1	ch_2	ch_3	ch_4	ch_5	ch_6	ch_7	ch_8	ch_9	ch_10	ch_11	ch_12	ch_13	ch_14	ch_15	ch_16	ch_17	ch_18	ch_19	ch_20	ch_21	ch_22	ch_23	ch_24	ch_25	ch_26	timestamp	marker	ch_29	ch_30	ch_31	ch_32	ch_33	ch_34	ch_35	ch_36	ch_37	ch_38	MarkerColumn	GestureLabel	CueLabel	SampleNumber	CollectionDate
-69005.205	-55454.939999999995	-105108.84	-18681.255	0.0	0.0	0.0	0.0	0.0	0.0	0.0	0.0	0.0	0.0	0.0	0.0	0.0	0.0	146.0	0.0	0.03710928	-0.00793455	1.016659995	3.67766	0.47306	-0.42728	3314526.0	1776545019.657272	5.0	1.0	-1.0	-1.0	-1.0	-1.0	-1.0	-1.0	-1.0	-1.0	0.0	marker	peace	Peace	30	0418
-68972.985	-55446.255	-105068.11499999999	-18672.975	0.0	0.0	0.0	0.0	0.0	0.0	0.0	0.0	0.0	0.0	0.0	0.0	0.0	0.0	146.0	0.0	0.03710928	-0.00793455	1.016659995	3.67766	0.47306	-0.42728	3314527.0	1776545019.657275	0.0	1.0	-1.0	-1.0	-1.0	-1.0	-1.0	-1.0	-1.0	-1.0	0.0	marker	peace	Peace	30	0418
-68948.325	-55447.92	-105078.105	-18646.875	0.0	0.0	0.0	0.0	0.0	0.0	0.0	0.0	0.0	0.0	0.0	0.0	0.0	0.0	146.0	0.0	0.03710928	-0.00793455	1.016659995	3.67766	0.47306	-0.42728	3314528.0	1776545019.667583	0.0	1.0	-1.0	-1.0	-1.0	-1.0	-1.0	-1.0	-1.0	-1.0	0.0	marker	peace	Peace	30	0418
-68972.895	-55471.049999999996	-105121.53	-18637.02	0.0	0.0	0.0	0.0	0.0	0.0	0.0	0.0	0.0	0.0	0.0	0.0	0.0	0.0	146.0	0.0	0.03710928	-0.00793455	1.016659995	3.67766	0.47306	-0.42728	3314529.0	1776545019.667587	0.0	1.0	-1.0	-1.0	-1.0	-1.0	-1.0	-1.0	-1.0	-1.0	0.0	marker	peace	Peace	30	0418
-69028.38	-55476.54	-105112.75499999999	-18646.739999999998	0.0	0.0	0.0	0.0	0.0	0.0	0.0	0.0	0.0	0.0	0.0	0.0	0.0	0.0	146.0	0.0	0.03515616	0.000305175	1.018002765	2.24322	0.44254	0.6409199999999999	3314530.0	1776545019.667592	0.0	1.0	-1.0	-1.0	-1.0	-1.0	-1.0	-1.0	-1.0	-1.0	0.0	marker	peace	Peace	30	0418
-69007.41	-55465.604999999996	-105102.94499999999	-18655.829999999998	0.0	0.0	0.0	0.0	0.0	0.0	0.0	0.0	0.0	0.0	0.0	0.0	0.0	0.0	146.0	0.0	0.03515616	0.000305175	1.018002765	2.24322	0.44254	0.6409199999999999	3314531.0	1776545019.667596	0.0	1.0	-1.0	-1.0	-1.0	-1.0	-1.0	-1.0	-1.0	-1.0	0.0	marker	peace	Peace	30	0418
-68948.37	-55456.875	-105092.50499999999	-18645.524999999998	0.0	0.0	0.0	0.0	0.0	0.0	0.0	0.0	0.0	0.0	0.0	0.0	0.0	0.0	146.0	0.0	0.03515616	0.000305175	1.018002765	2.24322	0.44254	0.6409199999999999	3314532.0	1776545019.669373	0.0	1.0	-1.0	-1.0	-1.0	-1.0	-1.0	-1.0	-1.0	-1.0	0.0	marker	peace	Peace	30	0418
-69009.525	-55464.479999999996	-105163.065	-18710.235	0.0	0.0	0.0	0.0	0.0	0.0	0.0	0.0	0.0	0.0	0.0	0.0	0.0	0.0	146.0	0.0	0.03515616	0.000305175	1.018002765	2.24322	0.44254	0.6409199999999999	3314533.0	1776545019.669389	0.0	1.0	-1.0	-1.0	-1.0	-1.0	-1.0	-1.0	-1.0	-1.0	0.0	marker	peace	Peace	30	0418
-68922.315	-55462.634999999995	-105034.545	-18604.665	0.0	0.0	0.0	0.0	0.0	0.0	0.0	0.0	0.0	0.0	0.0	0.0	0.0	0.0	146.0	0.0	0.03515616	0.000305175	1.018002765	2.24322	0.44254	0.6409199999999999	3314534.0	1776545019.673306	0.0	1.0	-1.0	-1.0	-1.0	-1.0	-1.0	-1.0	-1.0	-1.0	0.0	marker	peace	Peace	30	0418
-68983.73999999999	-55472.49	-105066.98999999999	-18662.399999999998	0.0	0.0	0.0	0.0	0.0	0.0	0.0	0.0	0.0	0.0	0.0	0.0	0.0	0.0	146.0	0.0	0.03515616	0.000305175	1.018002765	2.24322	0.44254	0.6409199999999999	3314535.0	1776545019.673323	0.0	1.0	-1.0	-1.0	-1.0	-1.0	-1.0	-1.0	-1.0	-1.0	0.0	marker	peace	Peace	30	0418
-69083.145	-55482.03	-105190.92	-18772.065	0.0	0.0	0.0	0.0	0.0	0.0	0.0	0.0	0.0	0.0	0.0	0.0	0.0	0.0	146.0	0.0	0.03515616	0.000305175	1.018002765	2.24322	0.44254	0.6409199999999999	3314536.0	1776545019.677327	0.0	1.0	-1.0	-1.0	-1.0	-1.0	-1.0	-1.0	-1.0	-1.0	0.0	marker	peace	Peace	30	0418
-69030.135	-55480.905	-105182.09999999999	-18724.005	0.0	0.0	0.0	0.0	0.0	0.0	0.0	0.0	0.0	0.0	0.0	0.0	0.0	0.0	146.0	0.0	0.03515616	0.000305175	1.018002765	2.24322	0.44254	0.6409199999999999	3314537.0	1776545019.677343	0.0	1.0	-1.0	-1.0	-1.0	-1.0	-1.0	-1.0	-1.0	-1.0	0.0	marker	peace	Peace	30	0418
-68985.22499999999	-55478.115	-105106.23	-18658.89	0.0	0.0	0.0	0.0	0.0	0.0	0.0	0.0	0.0	0.0	0.0	0.0	0.0	0.0	146.0	0.0	0.03515616	0.000305175	1.018002765	2.24322	0.44254	0.6409199999999999	3314538.0	1776545019.681454	0.0	1.0	-1.0	-1.0	-1.0	-1.0	-1.0	-1.0	-1.0	-1.0	0.0	marker	peace	Peace	30	0418
-68975.19	-55472.579999999994	-105069.015	-18646.829999999998	0.0	0.0	0.0	0.0	0.0	0.0	0.0	0.0	0.0	0.0	0.0	0.0	0.0	0.0	146.0	0.0	0.03515616	0.000305175	1.018002765	2.24322	0.44254	0.6409199999999999	3314539.0	1776545019.681469	0.0	1.0	-1.0	-1.0	-1.0	-1.0	-1.0	-1.0	-1.0	-1.0	0.0	marker	peace	Peace	30	0418
-68973.20999999999	-55476.314999999995	-105082.605	-18653.805	0.0	0.0	0.0	0.0	0.0	0.0	0.0	0.0	0.0	0.0	0.0	0.0	0.0	0.0	146.0	0.0	0.033264075	0.00183105	1.01916243	1.78542	0.39676	0.74774	3314540.0	1776545019.685425	0.0	1.0	-1.0	-1.0	-1.0	-1.0	-1.0	-1.0	-1.0	-1.0	0.0	marker	peace	Peace	30	0418
-68984.685	-55475.82	-105113.79	-18673.469999999998	0.0	0.0	0.0	0.0	0.0	0.0	0.0	0.0	0.0	0.0	0.0	0.0	0.0	0.0	146.0	0.0	0.033264075	0.00183105	1.01916243	1.78542	0.39676	0.74774	3314541.0	1776545019.68544	0.0	1.0	-1.0	-1.0	-1.0	-1.0	-1.0	-1.0	-1.0	-1.0	0.0	marker	peace	Peace	30	0418
-69007.59	-55486.215	-105139.89	-18688.14	0.0	0.0	0.0	0.0	0.0	0.0	0.0	0.0	0.0	0.0	0.0	0.0	0.0	0.0	146.0	0.0	0.033264075	0.00183105	1.01916243	1.78542	0.39676	0.74774	3314542.0	1776545019.689291	0.0	1.0	-1.0	-1.0	-1.0	-1.0	-1.0	-1.0	-1.0	-1.0	0.0	marker	peace	Peace	30	0418
-69022.575	-55493.189999999995	-105147.495	-18682.02	0.0	0.0	0.0	0.0	0.0	0.0	0.0	0.0	0.0	0.0	0.0	0.0	0.0	0.0	146.0	0.0	0.033264075	0.00183105	1.01916243	1.78542	0.39676	0.74774	3314543.0	1776545019.689311	0.0	1.0	-1.0	-1.0	-1.0	-1.0	-1.0	-1.0	-1.0	-1.0	0.0	marker	peace	Peace	30	0418
-68990.805	-55485.63	-105113.655	-18671.489999999998	0.0	0.0	0.0	0.0	0.0	0.0	0.0	0.0	0.0	0.0	0.0	0.0	0.0	0.0	146.0	0.0	0.033264075	0.00183105	1.01916243	1.78542	0.39676	0.74774	3314544.0	1776545019.693325	0.0	1.0	-1.0	-1.0	-1.0	-1.0	-1.0	-1.0	-1.0	-1.0	0.0	marker	peace	Peace	30	0418
-68964.48	-55484.64	-105069.825	-18658.53	0.0	0.0	0.0	0.0	0.0	0.0	0.0	0.0	0.0	0.0	0.0	0.0	0.0	0.0	146.0	0.0	0.033264075	0.00183105	1.01916243	1.78542	0.39676	0.74774	3314545.0	1776545019.69334	0.0	1.0	-1.0	-1.0	-1.0	-1.0	-1.0	-1.0	-1.0	-1.0	0.0	marker	peace	Peace	30	0418
-68973.39	-55482.03	-105066.62999999999	-18660.465	0.0	0.0	0.0	0.0	0.0	0.0	0.0	0.0	0.0	0.0	0.0	0.0	0.0	0.0	146.0	0.0	0.033264075	0.00183105	1.01916243	1.78542	0.39676	0.74774	3314546.0	1776545019.697447	0.0	1.0	-1.0	-1.0	-1.0	-1.0	-1.0	-1.0	-1.0	-1.0	0.0	marker	peace	Peace	30	0418
-69026.175	-55493.055	-105130.39499999999	-18706.274999999998	0.0	0.0	0.0	0.0	0.0	0.0	0.0	0.0	0.0	0.0	0.0	0.0	0.0	0.0	146.0	0.0	0.033264075	0.00183105	1.01916243	1.78542	0.39676	0.74774	3314547.0	1776545019.697462	0.0	1.0	-1.0	-1.0	-1.0	-1.0	-1.0	-1.0	-1.0	-1.0	0.0	marker	peace	Peace	30	0418
-69055.515	-55492.38	-105235.155	-18770.715	0.0	0.0	0.0	0.0	0.0	0.0	0.0	0.0	0.0	0.0	0.0	0.0	0.0	0.0	146.0	0.0	0.033264075	0.00183105	1.01916243	1.78542	0.39676	0.74774	3314548.0	1776545019.701438	0.0	1.0	-1.0	-1.0	-1.0	-1.0	-1.0	-1.0	-1.0	-1.0	0.0	marker	peace	Peace	30	0418
-69026.13	-55480.68	-105200.64	-18725.355	0.0	0.0	0.0	0.0	0.0	0.0	0.0	0.0	0.0	0.0	0.0	0.0	0.0	0.0	146.0	0.0	0.033264075	0.00183105	1.01916243	1.78542	0.39676	0.74774	3314549.0	1776545019.701453	0.0	1.0	-1.0	-1.0	-1.0	-1.0	-1.0	-1.0	-1.0	-1.0	0.0	marker	peace	Peace	30	0418
-68996.97	-55471.814999999995	-105105.64499999999	-18657.09	0.0	0.0	0.0	0.0	0.0	0.0	0.0	0.0	0.0	0.0	0.0	0.0	0.0	0.0	146.0	0.0	0.03356925	-0.00756834	1.019833815	3.3571999999999997	-0.12208	0.6714399999999999	3314550.0	1776545019.705606	0.0	1.0	-1.0	-1.0	-1.0	-1.0	-1.0	-1.0	-1.0	-1.0	0.0	marker	peace	Peace	30	0418
-69033.69	-55471.32	-105124.545	-18674.055	0.0	0.0	0.0	0.0	0.0	0.0	0.0	0.0	0.0	0.0	0.0	0.0	0.0	0.0	146.0	0.0	0.03356925	-0.00756834	1.019833815	3.3571999999999997	-0.12208	0.6714399999999999	3314551.0	1776545019.705621	0.0	1.0	-1.0	-1.0	-1.0	-1.0	-1.0	-1.0	-1.0	-1.0	0.0	marker	peace	Peace	30	0418
-68984.09999999999	-55473.119999999995	-105082.605	-18646.29	0.0	0.0	0.0	0.0	0.0	0.0	0.0	0.0	0.0	0.0	0.0	0.0	0.0	0.0	146.0	0.0	0.03356925	-0.00756834	1.019833815	3.3571999999999997	-0.12208	0.6714399999999999	3314552.0	1776545019.709471	0.0	1.0	-1.0	-1.0	-1.0	-1.0	-1.0	-1.0	-1.0	-1.0	0.0	marker	peace	Peace	30	0418
-68947.92	-55477.305	-105074.64	-18629.954999999998	0.0	0.0	0.0	0.0	0.0	0.0	0.0	0.0	0.0	0.0	0.0	0.0	0.0	0.0	146.0	0.0	0.03356925	-0.00756834	1.019833815	3.3571999999999997	-0.12208	0.6714399999999999	3314553.0	1776545019.70949	0.0	1.0	-1.0	-1.0	-1.0	-1.0	-1.0	-1.0	-1.0	-1.0	0.0	marker	peace	Peace	30	0418
-68982.795	-55483.92	-105100.01999999999	-18653.85	0.0	0.0	0.0	0.0	0.0	0.0	0.0	0.0	0.0	0.0	0.0	0.0	0.0	0.0	146.0	0.0	0.03356925	-0.00756834	1.019833815	3.3571999999999997	-0.12208	0.6714399999999999	3314554.0	1776545019.713373	0.0	1.0	-1.0	-1.0	-1.0	-1.0	-1.0	-1.0	-1.0	-1.0	0.0	marker	peace	Peace	30	0418
-69008.94	-55471.32	-105123.64499999999	-18686.52	0.0	0.0	0.0	0.0	0.0	0.0	0.0	0.0	0.0	0.0	0.0	0.0	0.0	0.0	146.0	0.0	0.03356925	-0.00756834	1.019833815	3.3571999999999997	-0.12208	0.6714399999999999	3314555.0	1776545019.713388	0.0	1.0	-1.0	-1.0	-1.0	-1.0	-1.0	-1.0	-1.0	-1.0	0.0	marker	peace	Peace	30	0418
-69017.805	-55400.759999999995	-105150.78	-18703.98	0.0	0.0	0.0	0.0	0.0	0.0	0.0	0.0	0.0	0.0	0.0	0.0	0.0	0.0	146.0	0.0	0.03356925	-0.00756834	1.019833815	3.3571999999999997	-0.12208	0.6714399999999999	3314556.0	1776545019.71744	0.0	1.0	-1.0	-1.0	-1.0	-1.0	-1.0	-1.0	-1.0	-1.0	0.0	marker	peace	Peace	30	0418
-68999.08499999999	-55318.905	-105126.56999999999	-18669.6	0.0	0.0	0.0	0.0	0.0	0.0	0.0	0.0	0.0	0.0	0.0	0.0	0.0	0.0	146.0	0.0	0.03356925	-0.00756834	1.019833815	3.3571999999999997	-0.12208	0.6714399999999999	3314557.0	1776545019.717455	0.0	1.0	-1.0	-1.0	-1.0	-1.0	-1.0	-1.0	-1.0	-1.0	0.0	marker	peace	Peace	30	0418
-68954.48999999999	-55308.284999999996	-105101.28	-18658.755	0.0	0.0	0.0	0.0	0.0	0.0	0.0	0.0	0.0	0.0	0.0	0.0	0.0	0.0	146.0	0.0	0.03356925	-0.00756834	1.019833815	3.3571999999999997	-0.12208	0.6714399999999999	3314558.0	1776545019.721392	0.0	1.0	-1.0	-1.0	-1.0	-1.0	-1.0	-1.0	-1.0	-1.0	0.0	marker	peace	Peace	30	0418
-68963.715	-55305.99	-105122.06999999999	-18690.614999999998	0.0	0.0	0.0	0.0	0.0	0.0	0.0	0.0	0.0	0.0	0.0	0.0	0.0	0.0	146.0	0.0	0.03356925	-0.00756834	1.019833815	3.3571999999999997	-0.12208	0.6714399999999999	3314559.0	1776545019.721407	0.0	1.0	-1.0	-1.0	-1.0	-1.0	-1.0	-1.0	-1.0	-1.0	0.0	marker	peace	Peace	30	0418
-68957.81999999999	-55299.645	-105055.56	-18625.86	0.0	0.0	0.0	0.0	0.0	0.0	0.0	0.0	0.0	0.0	0.0	0.0	0.0	0.0	146.0	0.0	0.03491202	-0.01623531	1.0192845	7.05012	0.0	0.09156	3314560.0	1776545019.727959	0.0	1.0	-1.0	-1.0	-1.0	-1.0	-1.0	-1.0	-1.0	-1.0	0.0	marker	peace	Peace	30	0418
-68960.295	-55295.775	-105065.595	-18628.335	0.0	0.0	0.0	0.0	0.0	0.0	0.0	0.0	0.0	0.0	0.0	0.0	0.0	0.0	146.0	0.0	0.03491202	-0.01623531	1.0192845	7.05012	0.0	0.09156	3314561.0	1776545019.727974	0.0	1.0	-1.0	-1.0	-1.0	-1.0	-1.0	-1.0	-1.0	-1.0	0.0	marker	peace	Peace	30	0418
-69032.34	-55294.829999999994	-105130.305	-18679.635	0.0	0.0	0.0	0.0	0.0	0.0	0.0	0.0	0.0	0.0	0.0	0.0	0.0	0.0	146.0	0.0	0.03491202	-0.01623531	1.0192845	7.05012	0.0	0.09156	3314562.0	1776545019.730719	0.0	1.0	-1.0	-1.0	-1.0	-1.0	-1.0	-1.0	-1.0	-1.0	0.0	marker	peace	Peace	30	0418
-69028.065	-55296.18	-105138.405	-18679.77	0.0	0.0	0.0	0.0	0.0	0.0	0.0	0.0	0.0	0.0	0.0	0.0	0.0	0.0	146.0	0.0	0.03491202	-0.01623531	1.0192845	7.05012	0.0	0.09156	3314563.0	1776545019.730735	0.0	1.0	-1.0	-1.0	-1.0	-1.0	-1.0	-1.0	-1.0	-1.0	0.0	marker	peace	Peace	30	0418
-68987.06999999999	-55299.78	-105130.8	-18711.989999999998	0.0	0.0	0.0	0.0	0.0	0.0	0.0	0.0	0.0	0.0	0.0	0.0	0.0	0.0	146.0	0.0	0.03491202	-0.01623531	1.0192845	7.05012	0.0	0.09156	3314564.0	1776545019.733775	0.0	1.0	-1.0	-1.0	-1.0	-1.0	-1.0	-1.0	-1.0	-1.0	0.0	marker	peace	Peace	30	0418
-68976.98999999999	-55299.329999999994	-105115.68	-18688.454999999998	0.0	0.0	0.0	0.0	0.0	0.0	0.0	0.0	0.0	0.0	0.0	0.0	0.0	0.0	146.0	0.0	0.03491202	-0.01623531	1.0192845	7.05012	0.0	0.09156	3314565.0	1776545019.73378	0.0	1.0	-1.0	-1.0	-1.0	-1.0	-1.0	-1.0	-1.0	-1.0	0.0	marker	peace	Peace	30	0418
-68979.105	-55287.0	-105077.83499999999	-18638.594999999998	0.0	0.0	0.0	0.0	0.0	0.0	0.0	0.0	0.0	0.0	0.0	0.0	0.0	0.0	146.0	0.0	0.03491202	-0.01623531	1.0192845	7.05012	0.0	0.09156	3314566.0	1776545019.739878	0.0	1.0	-1.0	-1.0	-1.0	-1.0	-1.0	-1.0	-1.0	-1.0	0.0	marker	peace	Peace	30	0418
-68979.105	-55270.575	-105060.23999999999	-18616.364999999998	0.0	0.0	0.0	0.0	0.0	0.0	0.0	0.0	0.0	0.0	0.0	0.0	0.0	0.0	146.0	0.0	0.03491202	-0.01623531	1.0192845	7.05012	0.0	0.09156	3314567.0	1776545019.739894	0.0	1.0	-1.0	-1.0	-1.0	-1.0	-1.0	-1.0	-1.0	-1.0	0.0	marker	peace	Peace	30	0418
-68989.14	-55256.04	-105089.175	-18650.969999999998	0.0	0.0	0.0	0.0	0.0	0.0	0.0	0.0	0.0	0.0	0.0	0.0	0.0	0.0	146.0	0.0	0.03491202	-0.01623531	1.0192845	7.05012	0.0	0.09156	3314568.0	1776545019.741548	0.0	1.0	-1.0	-1.0	-1.0	-1.0	-1.0	-1.0	-1.0	-1.0	0.0	marker	peace	Peace	30	0418
-69012.765	-55259.415	-105112.8	-18690.57	0.0	0.0	0.0	0.0	0.0	0.0	0.0	0.0	0.0	0.0	0.0	0.0	0.0	0.0	146.0	0.0	0.03491202	-0.01623531	1.0192845	7.05012	0.0	0.09156	3314569.0	1776545019.741563	0.0	1.0	-1.0	-1.0	-1.0	-1.0	-1.0	-1.0	-1.0	-1.0	0.0	marker	peace	Peace	30	0418
-68921.09999999999	-55263.24	-105031.305	-18597.645	0.0	0.0	0.0	0.0	0.0	0.0	0.0	0.0	0.0	0.0	0.0	0.0	0.0	0.0	146.0	0.0	0.033996495	-0.014221155000000001	1.02001692	8.34722	0.10682	-0.21364	3314570.0	1776545019.745946	0.0	1.0	-1.0	-1.0	-1.0	-1.0	-1.0	-1.0	-1.0	-1.0	0.0	marker	peace	Peace	30	0418
-68973.03	-55273.229999999996	-105069.69	-18633.105	0.0	0.0	0.0	0.0	0.0	0.0	0.0	0.0	0.0	0.0	0.0	0.0	0.0	0.0	146.0	0.0	0.033996495	-0.014221155000000001	1.02001692	8.34722	0.10682	-0.21364	3314571.0	1776545019.745962	0.0	1.0	-1.0	-1.0	-1.0	-1.0	-1.0	-1.0	-1.0	-1.0	0.0	marker	peace	Peace	30	0418
-69034.14	-55279.619999999995	-105140.51999999999	-18701.73	0.0	0.0	0.0	0.0	0.0	0.0	0.0	0.0	0.0	0.0	0.0	0.0	0.0	0.0	146.0	0.0	0.033996495	-0.014221155000000001	1.02001692	8.34722	0.10682	-0.21364	3314572.0	1776545019.74963	0.0	1.0	-1.0	-1.0	-1.0	-1.0	-1.0	-1.0	-1.0	-1.0	0.0	marker	peace	Peace	30	0418
-68988.915	-55272.104999999996	-105153.03	-18707.219999999998	0.0	0.0	0.0	0.0	0.0	0.0	0.0	0.0	0.0	0.0	0.0	0.0	0.0	0.0	146.0	0.0	0.033996495	-0.014221155000000001	1.02001692	8.34722	0.10682	-0.21364	3314573.0	1776545019.749647	0.0	1.0	-1.0	-1.0	-1.0	-1.0	-1.0	-1.0	-1.0	-1.0	0.0	marker	peace	Peace	30	0418
-68970.645	-55250.369999999995	-105114.015	-18696.69	0.0	0.0	0.0	0.0	0.0	0.0	0.0	0.0	0.0	0.0	0.0	0.0	0.0	0.0	146.0	0.0	0.033996495	-0.014221155000000001	1.02001692	8.34722	0.10682	-0.21364	3314574.0	1776545019.753693	0.0	1.0	-1.0	-1.0	-1.0	-1.0	-1.0	-1.0	-1.0	-1.0	0.0	marker	peace	Peace	30	0418
-69006.105	-55231.604999999996	-105091.515	-18665.774999999998	0.0	0.0	0.0	0.0	0.0	0.0	0.0	0.0	0.0	0.0	0.0	0.0	0.0	0.0	146.0	0.0	0.033996495	-0.014221155000000001	1.02001692	8.34722	0.10682	-0.21364	3314575.0	1776545019.753708	0.0	1.0	-1.0	-1.0	-1.0	-1.0	-1.0	-1.0	-1.0	-1.0	0.0	marker	peace	Peace	30	0418
-68976.765	-55222.875	-105072.165	-18608.309999999998	0.0	0.0	0.0	0.0	0.0	0.0	0.0	0.0	0.0	0.0	0.0	0.0	0.0	0.0	146.0	0.0	0.033996495	-0.014221155000000001	1.02001692	8.34722	0.10682	-0.21364	3314576.0	1776545019.757547	0.0	1.0	-1.0	-1.0	-1.0	-1.0	-1.0	-1.0	-1.0	-1.0	0.0	marker	peace	Peace	30	0418
-69049.98	-55230.57	-105163.92	-18687.195	0.0	0.0	0.0	0.0	0.0	0.0	0.0	0.0	0.0	0.0	0.0	0.0	0.0	0.0	146.0	0.0	0.033996495	-0.014221155000000001	1.02001692	8.34722	0.10682	-0.21364	3314577.0	1776545019.757562	0.0	1.0	-1.0	-1.0	-1.0	-1.0	-1.0	-1.0	-1.0	-1.0	0.0	marker	peace	Peace	30	0418
-69082.245	-55245.284999999996	-105194.51999999999	-18732.51	0.0	0.0	0.0	0.0	0.0	0.0	0.0	0.0	0.0	0.0	0.0	0.0	0.0	0.0	146.0	0.0	0.033996495	-0.014221155000000001	1.02001692	8.34722	0.10682	-0.21364	3314578.0	1776545019.761535	0.0	1.0	-1.0	-1.0	-1.0	-1.0	-1.0	-1.0	-1.0	-1.0	0.0	marker	peace	Peace	30	0418
-69047.45999999999	-55246.14	-105156.72	-18700.425	0.0	0.0	0.0	0.0	0.0	0.0	0.0	0.0	0.0	0.0	0.0	0.0	0.0	0.0	146.0	0.0	0.033996495	-0.014221155000000001	1.02001692	8.34722	0.10682	-0.21364	3314579.0	1776545019.761551	0.0	1.0	-1.0	-1.0	-1.0	-1.0	-1.0	-1.0	-1.0	-1.0	0.0	marker	peace	Peace	30	0418
-69005.7	-55247.085	-105105.78	-18664.469999999998	0.0	0.0	0.0	0.0	0.0	0.0	0.0	0.0	0.0	0.0	0.0	0.0	0.0	0.0	146.0	0.0	0.03332511	-0.00097656	1.020077955	4.39488	-0.33571999999999996	-0.19838	3314580.0	1776545019.765728	0.0	1.0	-1.0	-1.0	-1.0	-1.0	-1.0	-1.0	-1.0	-1.0	0.0	marker	peace	Peace	30	0418
-68983.69499999999	-55246.365	-105110.595	-18684.405	0.0	0.0	0.0	0.0	0.0	0.0	0.0	0.0	0.0	0.0	0.0	0.0	0.0	0.0	146.0	0.0	0.03332511	-0.00097656	1.020077955	4.39488	-0.33571999999999996	-0.19838	3314581.0	1776545019.765743	0.0	1.0	-1.0	-1.0	-1.0	-1.0	-1.0	-1.0	-1.0	-1.0	0.0	marker	peace	Peace	30	0418
-69013.845	-55239.57	-105140.79	-18723.915	0.0	0.0	0.0	0.0	0.0	0.0	0.0	0.0	0.0	0.0	0.0	0.0	0.0	0.0	146.0	0.0	0.03332511	-0.00097656	1.020077955	4.39488	-0.33571999999999996	-0.19838	3314582.0	1776545019.770798	0.0	1.0	-1.0	-1.0	-1.0	-1.0	-1.0	-1.0	-1.0	-1.0	0.0	marker	peace	Peace	30	0418
-68992.29	-55241.189999999995	-105111.315	-18688.32	0.0	0.0	0.0	0.0	0.0	0.0	0.0	0.0	0.0	0.0	0.0	0.0	0.0	0.0	146.0	0.0	0.03332511	-0.00097656	1.020077955	4.39488	-0.33571999999999996	-0.19838	3314583.0	1776545019.770813	0.0	1.0	-1.0	-1.0	-1.0	-1.0	-1.0	-1.0	-1.0	-1.0	0.0	marker	peace	Peace	30	0418
-68895.27	-55266.299999999996	-105068.11499999999	-18636.66	0.0	0.0	0.0	0.0	0.0	0.0	0.0	0.0	0.0	0.0	0.0	0.0	0.0	0.0	146.0	0.0	0.03332511	-0.00097656	1.020077955	4.39488	-0.33571999999999996	-0.19838	3314584.0	1776545019.773667	0.0	1.0	-1.0	-1.0	-1.0	-1.0	-1.0	-1.0	-1.0	-1.0	0.0	marker	peace	Peace	30	0418
-68900.625	-55277.64	-105083.86499999999	-18636.57	0.0	0.0	0.0	0.0	0.0	0.0	0.0	0.0	0.0	0.0	0.0	0.0	0.0	0.0	146.0	0.0	0.03332511	-0.00097656	1.020077955	4.39488	-0.33571999999999996	-0.19838	3314585.0	1776545019.773682	0.0	1.0	-1.0	-1.0	-1.0	-1.0	-1.0	-1.0	-1.0	-1.0	0.0	marker	peace	Peace	30	0418
-68959.89	-55287.225	-105081.03	-18639.54	0.0	0.0	0.0	0.0	0.0	0.0	0.0	0.0	0.0	0.0	0.0	0.0	0.0	0.0	146.0	0.0	0.03332511	-0.00097656	1.020077955	4.39488	-0.33571999999999996	-0.19838	3314586.0	1776545019.777612	0.0	1.0	-1.0	-1.0	-1.0	-1.0	-1.0	-1.0	-1.0	-1.0	0.0	marker	peace	Peace	30	0418
-69062.265	-55306.215	-105096.69	-18675.18	0.0	0.0	0.0	0.0	0.0	0.0	0.0	0.0	0.0	0.0	0.0	0.0	0.0	0.0	146.0	0.0	0.03332511	-0.00097656	1.020077955	4.39488	-0.33571999999999996	-0.19838	3314587.0	1776545019.777627	0.0	1.0	-1.0	-1.0	-1.0	-1.0	-1.0	-1.0	-1.0	-1.0	0.0	marker	peace	Peace	30	0418
-68994.27	-55312.515	-105094.03499999999	-18669.149999999998	0.0	0.0	0.0	0.0	0.0	0.0	0.0	0.0	0.0	0.0	0.0	0.0	0.0	0.0	146.0	0.0	0.03332511	-0.00097656	1.020077955	4.39488	-0.33571999999999996	-0.19838	3314588.0	1776545019.781982	0.0	1.0	-1.0	-1.0	-1.0	-1.0	-1.0	-1.0	-1.0	-1.0	0.0	marker	peace	Peace	30	0418
-68944.14	-55300.994999999995	-105086.34	-18625.68	0.0	0.0	0.0	0.0	0.0	0.0	0.0	0.0	0.0	0.0	0.0	0.0	0.0	0.0	146.0	0.0	0.03332511	-0.00097656	1.020077955	4.39488	-0.33571999999999996	-0.19838	3314589.0	1776545019.781998	0.0	1.0	-1.0	-1.0	-1.0	-1.0	-1.0	-1.0	-1.0	-1.0	0.0	marker	peace	Peace	30	0418
-68888.11499999999	-55296.405	-105035.44499999999	-18580.995	0.0	0.0	0.0	0.0	0.0	0.0	0.0	0.0	0.0	0.0	0.0	0.0	0.0	0.0	146.0	0.0	0.031677165	0.006896955	1.02148176	1.9380199999999999	-0.8392999999999999	-0.51884	3314590.0	1776545019.78562	0.0	1.0	-1.0	-1.0	-1.0	-1.0	-1.0	-1.0	-1.0	-1.0	0.0	marker	peace	Peace	30	0418
-68951.79	-55300.095	-105112.53	-18676.755	0.0	0.0	0.0	0.0	0.0	0.0	0.0	0.0	0.0	0.0	0.0	0.0	0.0	0.0	146.0	0.0	0.031677165	0.006896955	1.02148176	1.9380199999999999	-0.8392999999999999	-0.51884	3314591.0	1776545019.785635	0.0	1.0	-1.0	-1.0	-1.0	-1.0	-1.0	-1.0	-1.0	-1.0	0.0	marker	peace	Peace	30	0418
-69024.825	-55306.395	-105148.845	-18715.23	0.0	0.0	0.0	0.0	0.0	0.0	0.0	0.0	0.0	0.0	0.0	0.0	0.0	0.0	146.0	0.0	0.031677165	0.006896955	1.02148176	1.9380199999999999	-0.8392999999999999	-0.51884	3314592.0	1776545019.789586	0.0	1.0	-1.0	-1.0	-1.0	-1.0	-1.0	-1.0	-1.0	-1.0	0.0	marker	peace	Peace	30	0418
-69015.87	-55302.795	-105135.84	-18697.005	0.0	0.0	0.0	0.0	0.0	0.0	0.0	0.0	0.0	0.0	0.0	0.0	0.0	0.0	146.0	0.0	0.031677165	0.006896955	1.02148176	1.9380199999999999	-0.8392999999999999	-0.51884	3314593.0	1776545019.789602	0.0	1.0	-1.0	-1.0	-1.0	-1.0	-1.0	-1.0	-1.0	-1.0	0.0	marker	peace	Peace	30	0418
-68978.025	-55307.88	-105115.68	-18684.405	0.0	0.0	0.0	0.0	0.0	0.0	0.0	0.0	0.0	0.0	0.0	0.0	0.0	0.0	146.0	0.0	0.031677165	0.006896955	1.02148176	1.9380199999999999	-0.8392999999999999	-0.51884	3314594.0	1776545019.79368	0.0	1.0	-1.0	-1.0	-1.0	-1.0	-1.0	-1.0	-1.0	-1.0	0.0	marker	peace	Peace	30	0418
-68986.62	-55316.564999999995	-105101.325	-18663.344999999998	0.0	0.0	0.0	0.0	0.0	0.0	0.0	0.0	0.0	0.0	0.0	0.0	0.0	0.0	146.0	0.0	0.031677165	0.006896955	1.02148176	1.9380199999999999	-0.8392999999999999	-0.51884	3314595.0	1776545019.793696	0.0	1.0	-1.0	-1.0	-1.0	-1.0	-1.0	-1.0	-1.0	-1.0	0.0	marker	peace	Peace	30	0418
-69022.89	-55320.39	-105129.0	-18693.63	0.0	0.0	0.0	0.0	0.0	0.0	0.0	0.0	0.0	0.0	0.0	0.0	0.0	0.0	146.0	0.0	0.031677165	0.006896955	1.02148176	1.9380199999999999	-0.8392999999999999	-0.51884	3314596.0	1776545019.797707	0.0	1.0	-1.0	-1.0	-1.0	-1.0	-1.0	-1.0	-1.0	-1.0	0.0	marker	peace	Peace	30	0418
-68967.81	-55309.275	-105098.355	-18663.614999999998	0.0	0.0	0.0	0.0	0.0	0.0	0.0	0.0	0.0	0.0	0.0	0.0	0.0	0.0	146.0	0.0	0.031677165	0.006896955	1.02148176	1.9380199999999999	-0.8392999999999999	-0.51884	3314597.0	1776545019.797723	0.0	1.0	-1.0	-1.0	-1.0	-1.0	-1.0	-1.0	-1.0	-1.0	0.0	marker	peace	Peace	30	0418
-68857.65	-55298.655	-105006.69	-18564.614999999998	0.0	0.0	0.0	0.0	0.0	0.0	0.0	0.0	0.0	0.0	0.0	0.0	0.0	0.0	146.0	0.0	0.031677165	0.006896955	1.02148176	1.9380199999999999	-0.8392999999999999	-0.51884	3314598.0	1776545019.801798	0.0	1.0	-1.0	-1.0	-1.0	-1.0	-1.0	-1.0	-1.0	-1.0	0.0	marker	peace	Peace	30	0418
-68968.44	-55296.494999999995	-105139.03499999999	-18718.739999999998	0.0	0.0	0.0	0.0	0.0	0.0	0.0	0.0	0.0	0.0	0.0	0.0	0.0	0.0	146.0	0.0	0.031677165	0.006896955	1.02148176	1.9380199999999999	-0.8392999999999999	-0.51884	3314599.0	1776545019.801815	0.0	1.0	-1.0	-1.0	-1.0	-1.0	-1.0	-1.0	-1.0	-1.0	0.0	marker	peace	Peace	30	0418
-69084.09	-55296.63	-105232.995	-18793.125	0.0	0.0	0.0	0.0	0.0	0.0	0.0	0.0	0.0	0.0	0.0	0.0	0.0	0.0	146.0	0.0	0.035705475	0.002990715	1.018368975	1.00716	-0.7019599999999999	-0.6103999999999999	3314600.0	1776545019.805837	0.0	1.0	-1.0	-1.0	-1.0	-1.0	-1.0	-1.0	-1.0	-1.0	0.0	marker	peace	Peace	30	0418
-69043.68	-55300.049999999996	-105191.45999999999	-18751.5	0.0	0.0	0.0	0.0	0.0	0.0	0.0	0.0	0.0	0.0	0.0	0.0	0.0	0.0	146.0	0.0	0.035705475	0.002990715	1.018368975	1.00716	-0.7019599999999999	-0.6103999999999999	3314601.0	1776545019.805852	0.0	1.0	-1.0	-1.0	-1.0	-1.0	-1.0	-1.0	-1.0	-1.0	0.0	marker	peace	Peace	30	0418
-68955.345	-55308.465	-105112.62	-18691.065	0.0	0.0	0.0	0.0	0.0	0.0	0.0	0.0	0.0	0.0	0.0	0.0	0.0	0.0	146.0	0.0	0.035705475	0.002990715	1.018368975	1.00716	-0.7019599999999999	-0.6103999999999999	3314602.0	1776545019.809822	0.0	1.0	-1.0	-1.0	-1.0	-1.0	-1.0	-1.0	-1.0	-1.0	0.0	marker	peace	Peace	30	0418
-68973.48	-55326.915	-105113.295	-18682.605	0.0	0.0	0.0	0.0	0.0	0.0	0.0	0.0	0.0	0.0	0.0	0.0	0.0	0.0	146.0	0.0	0.035705475	0.002990715	1.018368975	1.00716	-0.7019599999999999	-0.6103999999999999	3314603.0	1776545019.809838	0.0	1.0	-1.0	-1.0	-1.0	-1.0	-1.0	-1.0	-1.0	-1.0	0.0	marker	peace	Peace	30	0418
-69073.155	-55336.86	-105120.765	-18664.695	0.0	0.0	0.0	0.0	0.0	0.0	0.0	0.0	0.0	0.0	0.0	0.0	0.0	0.0	146.0	0.0	0.035705475	0.002990715	1.018368975	1.00716	-0.7019599999999999	-0.6103999999999999	3314604.0	1776545019.813779	0.0	1.0	-1.0	-1.0	-1.0	-1.0	-1.0	-1.0	-1.0	-1.0	0.0	marker	peace	Peace	30	0418
-69014.79	-55334.204999999994	-105089.89499999999	-18640.26	0.0	0.0	0.0	0.0	0.0	0.0	0.0	0.0	0.0	0.0	0.0	0.0	0.0	0.0	146.0	0.0	0.035705475	0.002990715	1.018368975	1.00716	-0.7019599999999999	-0.6103999999999999	3314605.0	1776545019.813794	0.0	1.0	-1.0	-1.0	-1.0	-1.0	-1.0	-1.0	-1.0	-1.0	0.0	marker	peace	Peace	30	0418
-68926.59	-55319.354999999996	-105028.155	-18579.239999999998	0.0	0.0	0.0	0.0	0.0	0.0	0.0	0.0	0.0	0.0	0.0	0.0	0.0	0.0	146.0	0.0	0.035705475	0.002990715	1.018368975	1.00716	-0.7019599999999999	-0.6103999999999999	3314606.0	1776545019.817831	0.0	1.0	-1.0	-1.0	-1.0	-1.0	-1.0	-1.0	-1.0	-1.0	0.0	marker	peace	Peace	30	0418
-68987.655	-55312.064999999995	-105096.87	-18654.75	0.0	0.0	0.0	0.0	0.0	0.0	0.0	0.0	0.0	0.0	0.0	0.0	0.0	0.0	146.0	0.0	0.035705475	0.002990715	1.018368975	1.00716	-0.7019599999999999	-0.6103999999999999	3314607.0	1776545019.817846	0.0	1.0	-1.0	-1.0	-1.0	-1.0	-1.0	-1.0	-1.0	-1.0	0.0	marker	peace	Peace	30	0418
-69094.845	-55311.795	-105178.36499999999	-18758.43	0.0	0.0	0.0	0.0	0.0	0.0	0.0	0.0	0.0	0.0	0.0	0.0	0.0	0.0	146.0	0.0	0.035705475	0.002990715	1.018368975	1.00716	-0.7019599999999999	-0.6103999999999999	3314608.0	1776545019.821791	0.0	1.0	-1.0	-1.0	-1.0	-1.0	-1.0	-1.0	-1.0	-1.0	0.0	marker	peace	Peace	30	0418
-69003.72	-55303.604999999996	-105152.12999999999	-18725.715	0.0	0.0	0.0	0.0	0.0	0.0	0.0	0.0	0.0	0.0	0.0	0.0	0.0	0.0	146.0	0.0	0.035705475	0.002990715	1.018368975	1.00716	-0.7019599999999999	-0.6103999999999999	3314609.0	1776545019.821806	0.0	1.0	-1.0	-1.0	-1.0	-1.0	-1.0	-1.0	-1.0	-1.0	0.0	marker	peace	Peace	30	0418
-68954.625	-55296.045	-105127.29	-18703.44	0.0	0.0	0.0	0.0	0.0	0.0	0.0	0.0	0.0	0.0	0.0	0.0	0.0	0.0	146.0	0.0	0.038146875000000004	-0.01306149	1.01257065	3.4945399999999998	-0.74774	-2.2127	3314610.0	1776545019.825782	0.0	1.0	-1.0	-1.0	-1.0	-1.0	-1.0	-1.0	-1.0	-1.0	0.0	marker	peace	Peace	30	0418
-69021.315	-55295.729999999996	-105119.595	-18680.579999999998	0.0	0.0	0.0	0.0	0.0	0.0	0.0	0.0	0.0	0.0	0.0	0.0	0.0	0.0	146.0	0.0	0.038146875000000004	-0.01306149	1.01257065	3.4945399999999998	-0.74774	-2.2127	3314611.0	1776545019.825803	0.0	1.0	-1.0	-1.0	-1.0	-1.0	-1.0	-1.0	-1.0	-1.0	0.0	marker	peace	Peace	30	0418
-68938.245	-55299.465	-105048.72	-18636.57	0.0	0.0	0.0	0.0	0.0	0.0	0.0	0.0	0.0	0.0	0.0	0.0	0.0	0.0	146.0	0.0	0.038146875000000004	-0.01306149	1.01257065	3.4945399999999998	-0.74774	-2.2127	3314612.0	1776545019.83029	0.0	1.0	-1.0	-1.0	-1.0	-1.0	-1.0	-1.0	-1.0	-1.0	0.0	marker	peace	Peace	30	0418
-68962.545	-55319.715	-105100.515	-18676.71	0.0	0.0	0.0	0.0	0.0	0.0	0.0	0.0	0.0	0.0	0.0	0.0	0.0	0.0	146.0	0.0	0.038146875000000004	-0.01306149	1.01257065	3.4945399999999998	-0.74774	-2.2127	3314613.0	1776545019.830311	0.0	1.0	-1.0	-1.0	-1.0	-1.0	-1.0	-1.0	-1.0	-1.0	0.0	marker	peace	Peace	30	0418
-68959.08	-55328.805	-105076.305	-18638.37	0.0	0.0	0.0	0.0	0.0	0.0	0.0	0.0	0.0	0.0	0.0	0.0	0.0	0.0	146.0	0.0	0.038146875000000004	-0.01306149	1.01257065	3.4945399999999998	-0.74774	-2.2127	3314614.0	1776545019.83624	0.0	1.0	-1.0	-1.0	-1.0	-1.0	-1.0	-1.0	-1.0	-1.0	0.0	marker	peace	Peace	30	0418
-68908.95	-55319.49	-105029.50499999999	-18595.665	0.0	0.0	0.0	0.0	0.0	0.0	0.0	0.0	0.0	0.0	0.0	0.0	0.0	0.0	146.0	0.0	0.038146875000000004	-0.01306149	1.01257065	3.4945399999999998	-0.74774	-2.2127	3314615.0	1776545019.836266	0.0	1.0	-1.0	-1.0	-1.0	-1.0	-1.0	-1.0	-1.0	-1.0	0.0	marker	peace	Peace	30	0418
-68931.09	-55315.935	-105047.14499999999	-18597.69	0.0	0.0	0.0	0.0	0.0	0.0	0.0	0.0	0.0	0.0	0.0	0.0	0.0	0.0	146.0	0.0	0.038146875000000004	-0.01306149	1.01257065	3.4945399999999998	-0.74774	-2.2127	3314616.0	1776545019.83915	0.0	1.0	-1.0	-1.0	-1.0	-1.0	-1.0	-1.0	-1.0	-1.0	0.0	marker	peace	Peace	30	0418
-68964.03	-55323.63	-105093.26999999999	-18645.165	0.0	0.0	0.0	0.0	0.0	0.0	0.0	0.0	0.0	0.0	0.0	0.0	0.0	0.0	146.0	0.0	0.038146875000000004	-0.01306149	1.01257065	3.4945399999999998	-0.74774	-2.2127	3314617.0	1776545019.839179	0.0	1.0	-1.0	-1.0	-1.0	-1.0	-1.0	-1.0	-1.0	-1.0	0.0	marker	peace	Peace	30	0418
-69013.935	-55332.18	-105131.51999999999	-18684.675	0.0	0.0	0.0	0.0	0.0	0.0	0.0	0.0	0.0	0.0	0.0	0.0	0.0	0.0	146.0	0.0	0.038146875000000004	-0.01306149	1.01257065	3.4945399999999998	-0.74774	-2.2127	3314618.0	1776545019.842186	0.0	1.0	-1.0	-1.0	-1.0	-1.0	-1.0	-1.0	-1.0	-1.0	0.0	marker	peace	Peace	30	0418
-69020.91	-55327.365	-105120.765	-18686.79	0.0	0.0	0.0	0.0	0.0	0.0	0.0	0.0	0.0	0.0	0.0	0.0	0.0	0.0	146.0	0.0	0.038146875000000004	-0.01306149	1.01257065	3.4945399999999998	-0.74774	-2.2127	3314619.0	1776545019.842201	0.0	1.0	-1.0	-1.0	-1.0	-1.0	-1.0	-1.0	-1.0	-1.0	0.0	marker	peace	Peace	30	0418
-68973.84	-55324.619999999995	-105097.68	-18686.34	0.0	0.0	0.0	0.0	0.0	0.0	0.0	0.0	0.0	0.0	0.0	0.0	0.0	0.0	146.0	0.0	0.040466205	-0.020324655	1.009702005	4.86794	-0.09156	-2.77732	3314620.0	1776545019.845986	0.0	1.0	-1.0	-1.0	-1.0	-1.0	-1.0	-1.0	-1.0	-1.0	0.0	marker	peace	Peace	30	0418
-68916.33	-55322.64	-105017.4	-18620.235	0.0	0.0	0.0	0.0	0.0	0.0	0.0	0.0	0.0	0.0	0.0	0.0	0.0	0.0	146.0	0.0	0.040466205	-0.020324655	1.009702005	4.86794	-0.09156	-2.77732	3314621.0	1776545019.846019	0.0	1.0	-1.0	-1.0	-1.0	-1.0	-1.0	-1.0	-1.0	-1.0	0.0	marker	peace	Peace	30	0418
-68932.34999999999	-55321.064999999995	-105017.67	-18605.43	0.0	0.0	0.0	0.0	0.0	0.0	0.0	0.0	0.0	0.0	0.0	0.0	0.0	0.0	146.0	0.0	0.040466205	-0.020324655	1.009702005	4.86794	-0.09156	-2.77732	3314622.0	1776545019.852321	0.0	1.0	-1.0	-1.0	-1.0	-1.0	-1.0	-1.0	-1.0	-1.0	0.0	marker	peace	Peace	30	0418
-69009.255	-55322.729999999996	-105117.435	-18675.765	0.0	0.0	0.0	0.0	0.0	0.0	0.0	0.0	0.0	0.0	0.0	0.0	0.0	0.0	146.0	0.0	0.040466205	-0.020324655	1.009702005	4.86794	-0.09156	-2.77732	3314623.0	1776545019.852341	0.0	1.0	-1.0	-1.0	-1.0	-1.0	-1.0	-1.0	-1.0	-1.0	0.0	marker	peace	Peace	30	0418
-69107.22	-55311.93	-105175.89	-18718.559999999998	0.0	0.0	0.0	0.0	0.0	0.0	0.0	0.0	0.0	0.0	0.0	0.0	0.0	0.0	146.0	0.0	0.040466205	-0.020324655	1.009702005	4.86794	-0.09156	-2.77732	3314624.0	1776545019.853869	0.0	1.0	-1.0	-1.0	-1.0	-1.0	-1.0	-1.0	-1.0	-1.0	0.0	marker	peace	Peace	30	0418
-69040.215	-55292.445	-105139.53	-18677.835	0.0	0.0	0.0	0.0	0.0	0.0	0.0	0.0	0.0	0.0	0.0	0.0	0.0	0.0	146.0	0.0	0.040466205	-0.020324655	1.009702005	4.86794	-0.09156	-2.77732	3314625.0	1776545019.853888	0.0	1.0	-1.0	-1.0	-1.0	-1.0	-1.0	-1.0	-1.0	-1.0	0.0	marker	peace	Peace	30	0418
-68976.135	-55289.43	-105110.55	-18644.625	0.0	0.0	0.0	0.0	0.0	0.0	0.0	0.0	0.0	0.0	0.0	0.0	0.0	0.0	146.0	0.0	0.040466205	-0.020324655	1.009702005	4.86794	-0.09156	-2.77732	3314626.0	1776545019.857878	0.0	1.0	-1.0	-1.0	-1.0	-1.0	-1.0	-1.0	-1.0	-1.0	0.0	marker	peace	Peace	30	0418
-68973.255	-55301.354999999996	-105107.805	-18661.274999999998	0.0	0.0	0.0	0.0	0.0	0.0	0.0	0.0	0.0	0.0	0.0	0.0	0.0	0.0	146.0	0.0	0.040466205	-0.020324655	1.009702005	4.86794	-0.09156	-2.77732	3314627.0	1776545019.857894	0.0	1.0	-1.0	-1.0	-1.0	-1.0	-1.0	-1.0	-1.0	-1.0	0.0	marker	peace	Peace	30	0418
-68950.89	-55308.465	-105103.39499999999	-18670.184999999998	0.0	0.0	0.0	0.0	0.0	0.0	0.0	0.0	0.0	0.0	0.0	0.0	0.0	0.0	146.0	0.0	0.040466205	-0.020324655	1.009702005	4.86794	-0.09156	-2.77732	3314628.0	1776545019.861715	0.0	1.0	-1.0	-1.0	-1.0	-1.0	-1.0	-1.0	-1.0	-1.0	0.0	marker	peace	Peace	30	0418
-68943.015	-55301.759999999995	-105153.61499999999	-18704.745	0.0	0.0	0.0	0.0	0.0	0.0	0.0	0.0	0.0	0.0	0.0	0.0	0.0	0.0	146.0	0.0	0.040466205	-0.020324655	1.009702005	4.86794	-0.09156	-2.77732	3314629.0	1776545019.861739	0.0	1.0	-1.0	-1.0	-1.0	-1.0	-1.0	-1.0	-1.0	-1.0	0.0	marker	peace	Peace	30	0418
-68959.53	-55284.03	-105121.485	-18688.77	0.0	0.0	0.0	0.0	0.0	0.0	0.0	0.0	0.0	0.0	0.0	0.0	0.0	0.0	146.0	0.0	0.038024805	-0.00659178	1.013242035	3.6624	0.04578	-2.45686	3314630.0	1776545019.86612	0.0	1.0	-1.0	-1.0	-1.0	-1.0	-1.0	-1.0	-1.0	-1.0	0.0	marker	peace	Peace	30	0418
-69036.39	-55282.365	-105115.545	-18693.989999999998	0.0	0.0	0.0	0.0	0.0	0.0	0.0	0.0	0.0	0.0	0.0	0.0	0.0	0.0	146.0	0.0	0.038024805	-0.00659178	1.013242035	3.6624	0.04578	-2.45686	3314631.0	1776545019.866143	0.0	1.0	-1.0	-1.0	-1.0	-1.0	-1.0	-1.0	-1.0	-1.0	0.0	marker	peace	Peace	30	0418
-69054.255	-55273.68	-105080.58	-18670.05	0.0	0.0	0.0	0.0	0.0	0.0	0.0	0.0	0.0	0.0	0.0	0.0	0.0	0.0	146.0	0.0	0.038024805	-0.00659178	1.013242035	3.6624	0.04578	-2.45686	3314632.0	1776545019.869955	0.0	1.0	-1.0	-1.0	-1.0	-1.0	-1.0	-1.0	-1.0	-1.0	0.0	marker	peace	Peace	30	0418
-68999.895	-55262.79	-105088.095	-18664.965	0.0	0.0	0.0	0.0	0.0	0.0	0.0	0.0	0.0	0.0	0.0	0.0	0.0	0.0	146.0	0.0	0.038024805	-0.00659178	1.013242035	3.6624	0.04578	-2.45686	3314633.0	1776545019.869978	0.0	1.0	-1.0	-1.0	-1.0	-1.0	-1.0	-1.0	-1.0	-1.0	0.0	marker	peace	Peace	30	0418
-68998.68	-55261.485	-105148.62	-18681.39	0.0	0.0	0.0	0.0	0.0	0.0	0.0	0.0	0.0	0.0	0.0	0.0	0.0	0.0	146.0	0.0	0.038024805	-0.00659178	1.013242035	3.6624	0.04578	-2.45686	3314634.0	1776545019.874834	0.0	1.0	-1.0	-1.0	-1.0	-1.0	-1.0	-1.0	-1.0	-1.0	0.0	marker	peace	Peace	30	0418
-69006.19499999999	-55263.915	-105116.08499999999	-18643.05	0.0	0.0	0.0	0.0	0.0	0.0	0.0	0.0	0.0	0.0	0.0	0.0	0.0	0.0	146.0	0.0	0.038024805	-0.00659178	1.013242035	3.6624	0.04578	-2.45686	3314635.0	1776545019.87485	0.0	1.0	-1.0	-1.0	-1.0	-1.0	-1.0	-1.0	-1.0	-1.0	0.0	marker	peace	Peace	30	0418
-68941.98	-55268.46	-105048.45	-18598.95	0.0	0.0	0.0	0.0	0.0	0.0	0.0	0.0	0.0	0.0	0.0	0.0	0.0	0.0	146.0	0.0	0.038024805	-0.00659178	1.013242035	3.6624	0.04578	-2.45686	3314636.0	1776545019.877929	0.0	1.0	-1.0	-1.0	-1.0	-1.0	-1.0	-1.0	-1.0	-1.0	0.0	marker	peace	Peace	30	0418
-68912.775	-55272.15	-105044.76	-18585.765	0.0	0.0	0.0	0.0	0.0	0.0	0.0	0.0	0.0	0.0	0.0	0.0	0.0	0.0	146.0	0.0	0.038024805	-0.00659178	1.013242035	3.6624	0.04578	-2.45686	3314637.0	1776545019.877956	0.0	1.0	-1.0	-1.0	-1.0	-1.0	-1.0	-1.0	-1.0	-1.0	0.0	marker	peace	Peace	30	0418
-69027.39	-55237.994999999995	-105156.54	-18714.51	0.0	0.0	0.0	0.0	0.0	0.0	0.0	0.0	0.0	0.0	0.0	0.0	0.0	0.0	146.0	0.0	0.038024805	-0.00659178	1.013242035	3.6624	0.04578	-2.45686	3314638.0	1776545019.882244	0.0	1.0	-1.0	-1.0	-1.0	-1.0	-1.0	-1.0	-1.0	-1.0	0.0	marker	peace	Peace	30	0418
-68999.22	-55150.47	-105105.375	-18660.735	0.0	0.0	0.0	0.0	0.0	0.0	0.0	0.0	0.0	0.0	0.0	0.0	0.0	0.0	146.0	0.0	0.038024805	-0.00659178	1.013242035	3.6624	0.04578	-2.45686	3314639.0	1776545019.882276	0.0	1.0	-1.0	-1.0	-1.0	-1.0	-1.0	-1.0	-1.0	-1.0	0.0	marker	peace	Peace	30	0418
-68952.465	-55132.965	-105043.59	-18604.844999999998	0.0	0.0	0.0	0.0	0.0	0.0	0.0	0.0	0.0	0.0	0.0	0.0	0.0	0.0	146.0	0.0	0.03210441	0.00781248	1.02392316	0.48832	-0.65618	-1.32762	3314640.0	1776545019.886063	0.0	1.0	-1.0	-1.0	-1.0	-1.0	-1.0	-1.0	-1.0	-1.0	0.0	marker	peace	Peace	30	0418
-68986.215	-55128.825	-105115.185	-18650.655	0.0	0.0	0.0	0.0	0.0	0.0	0.0	0.0	0.0	0.0	0.0	0.0	0.0	0.0	146.0	0.0	0.03210441	0.00781248	1.02392316	0.48832	-0.65618	-1.32762	3314641.0	1776545019.886137	0.0	1.0	-1.0	-1.0	-1.0	-1.0	-1.0	-1.0	-1.0	-1.0	0.0	marker	peace	Peace	30	0418
-69021.72	-55135.619999999995	-105188.44499999999	-18720.18	0.0	0.0	0.0	0.0	0.0	0.0	0.0	0.0	0.0	0.0	0.0	0.0	0.0	0.0	146.0	0.0	0.03210441	0.00781248	1.02392316	0.48832	-0.65618	-1.32762	3314642.0	1776545019.88998	0.0	1.0	-1.0	-1.0	-1.0	-1.0	-1.0	-1.0	-1.0	-1.0	0.0	marker	peace	Peace	30	0418
-68973.075	-55134.99	-105117.20999999999	-18681.885	0.0	0.0	0.0	0.0	0.0	0.0	0.0	0.0	0.0	0.0	0.0	0.0	0.0	0.0	146.0	0.0	0.03210441	0.00781248	1.02392316	0.48832	-0.65618	-1.32762	3314643.0	1776545019.889993	0.0	1.0	-1.0	-1.0	-1.0	-1.0	-1.0	-1.0	-1.0	-1.0	0.0	marker	peace	Peace	30	0418
-68991.39	-55143.854999999996	-105115.545	-18703.215	0.0	0.0	0.0	0.0	0.0	0.0	0.0	0.0	0.0	0.0	0.0	0.0	0.0	0.0	146.0	0.0	0.03210441	0.00781248	1.02392316	0.48832	-0.65618	-1.32762	3314644.0	1776545019.894047	0.0	1.0	-1.0	-1.0	-1.0	-1.0	-1.0	-1.0	-1.0	-1.0	0.0	marker	peace	Peace	30	0418
-68994.94499999999	-55152.63	-105117.345	-18697.184999999998	0.0	0.0	0.0	0.0	0.0	0.0	0.0	0.0	0.0	0.0	0.0	0.0	0.0	0.0	146.0	0.0	0.03210441	0.00781248	1.02392316	0.48832	-0.65618	-1.32762	3314645.0	1776545019.894066	0.0	1.0	-1.0	-1.0	-1.0	-1.0	-1.0	-1.0	-1.0	-1.0	0.0	marker	peace	Peace	30	0418
-68937.93	-55155.465	-105051.825	-18622.665	0.0	0.0	0.0	0.0	0.0	0.0	0.0	0.0	0.0	0.0	0.0	0.0	0.0	0.0	146.0	0.0	0.03210441	0.00781248	1.02392316	0.48832	-0.65618	-1.32762	3314646.0	1776545019.898085	0.0	1.0	-1.0	-1.0	-1.0	-1.0	-1.0	-1.0	-1.0	-1.0	0.0	marker	peace	Peace	30	0418
-69048.22499999999	-55155.24	-105150.015	-18722.114999999998	0.0	0.0	0.0	0.0	0.0	0.0	0.0	0.0	0.0	0.0	0.0	0.0	0.0	0.0	146.0	0.0	0.03210441	0.00781248	1.02392316	0.48832	-0.65618	-1.32762	3314647.0	1776545019.898108	0.0	1.0	-1.0	-1.0	-1.0	-1.0	-1.0	-1.0	-1.0	-1.0	0.0	marker	peace	Peace	30	0418
-69035.895	-55140.75	-105126.885	-18686.745	0.0	0.0	0.0	0.0	0.0	0.0	0.0	0.0	0.0	0.0	0.0	0.0	0.0	0.0	146.0	0.0	0.03210441	0.00781248	1.02392316	0.48832	-0.65618	-1.32762	3314648.0	1776545019.902023	0.0	1.0	-1.0	-1.0	-1.0	-1.0	-1.0	-1.0	-1.0	-1.0	0.0	marker	peace	Peace	30	0418
-69008.265	-55127.43	-105123.59999999999	-18671.895	0.0	0.0	0.0	0.0	0.0	0.0	0.0	0.0	0.0	0.0	0.0	0.0	0.0	0.0	146.0	0.0	0.03210441	0.00781248	1.02392316	0.48832	-0.65618	-1.32762	3314649.0	1776545019.902049	0.0	1.0	-1.0	-1.0	-1.0	-1.0	-1.0	-1.0	-1.0	-1.0	0.0	marker	peace	Peace	30	0418
-69012.63	-55122.435	-105141.015	-18679.364999999998	0.0	0.0	0.0	0.0	0.0	0.0	0.0	0.0	0.0	0.0	0.0	0.0	0.0	0.0	146.0	0.0	0.034728915	0.010986300000000001	1.0205052000000001	2.1364	0.01526	-1.0834599999999999	3314650.0	1776545019.906069	0.0	1.0	-1.0	-1.0	-1.0	-1.0	-1.0	-1.0	-1.0	-1.0	0.0	marker	peace	Peace	30	0418
-68999.94	-55133.954999999994	-105141.735	-18692.73	0.0	0.0	0.0	0.0	0.0	0.0	0.0	0.0	0.0	0.0	0.0	0.0	0.0	0.0	146.0	0.0	0.034728915	0.010986300000000001	1.0205052000000001	2.1364	0.01526	-1.0834599999999999	3314651.0	1776545019.906082	0.0	1.0	-1.0	-1.0	-1.0	-1.0	-1.0	-1.0	-1.0	-1.0	0.0	marker	peace	Peace	30	0418
-68897.79	-55134.27	-105032.205	-18600.57	0.0	0.0	0.0	0.0	0.0	0.0	0.0	0.0	0.0	0.0	0.0	0.0	0.0	0.0	146.0	0.0	0.034728915	0.010986300000000001	1.0205052000000001	2.1364	0.01526	-1.0834599999999999	3314652.0	1776545019.910296	0.0	1.0	-1.0	-1.0	-1.0	-1.0	-1.0	-1.0	-1.0	-1.0	0.0	marker	peace	Peace	30	0418
-68850.315	-55148.174999999996	-104990.89499999999	-18555.93	0.0	0.0	0.0	0.0	0.0	0.0	0.0	0.0	0.0	0.0	0.0	0.0	0.0	0.0	146.0	0.0	0.034728915	0.010986300000000001	1.0205052000000001	2.1364	0.01526	-1.0834599999999999	3314653.0	1776545019.910309	0.0	1.0	-1.0	-1.0	-1.0	-1.0	-1.0	-1.0	-1.0	-1.0	0.0	marker	peace	Peace	30	0418
-69073.785	-55174.049999999996	-105197.94	-18744.84	0.0	0.0	0.0	0.0	0.0	0.0	0.0	0.0	0.0	0.0	0.0	0.0	0.0	0.0	146.0	0.0	0.034728915	0.010986300000000001	1.0205052000000001	2.1364	0.01526	-1.0834599999999999	3314654.0	1776545019.914145	0.0	1.0	-1.0	-1.0	-1.0	-1.0	-1.0	-1.0	-1.0	-1.0	0.0	marker	peace	Peace	30	0418
-69024.915	-55169.954999999994	-105147.09	-18694.89	0.0	0.0	0.0	0.0	0.0	0.0	0.0	0.0	0.0	0.0	0.0	0.0	0.0	0.0	146.0	0.0	0.034728915	0.010986300000000001	1.0205052000000001	2.1364	0.01526	-1.0834599999999999	3314655.0	1776545019.914159	0.0	1.0	-1.0	-1.0	-1.0	-1.0	-1.0	-1.0	-1.0	-1.0	0.0	marker	peace	Peace	30	0418
-69040.44	-55166.895	-105175.215	-18721.665	0.0	0.0	0.0	0.0	0.0	0.0	0.0	0.0	0.0	0.0	0.0	0.0	0.0	0.0	146.0	0.0	0.034728915	0.010986300000000001	1.0205052000000001	2.1364	0.01526	-1.0834599999999999	3314656.0	1776545019.918126	0.0	1.0	-1.0	-1.0	-1.0	-1.0	-1.0	-1.0	-1.0	-1.0	0.0	marker	peace	Peace	30	0418
-68918.67	-55141.29	-105038.055	-18593.82	0.0	0.0	0.0	0.0	0.0	0.0	0.0	0.0	0.0	0.0	0.0	0.0	0.0	0.0	146.0	0.0	0.034728915	0.010986300000000001	1.0205052000000001	2.1364	0.01526	-1.0834599999999999	3314657.0	1776545019.918149	0.0	1.0	-1.0	-1.0	-1.0	-1.0	-1.0	-1.0	-1.0	-1.0	0.0	marker	peace	Peace	30	0418
-68928.795	-55130.04	-105054.61499999999	-18598.725	0.0	0.0	0.0	0.0	0.0	0.0	0.0	0.0	0.0	0.0	0.0	0.0	0.0	0.0	146.0	0.0	0.034728915	0.010986300000000001	1.0205052000000001	2.1364	0.01526	-1.0834599999999999	3314658.0	1776545019.924698	0.0	1.0	-1.0	-1.0	-1.0	-1.0	-1.0	-1.0	-1.0	-1.0	0.0	marker	peace	Peace	30	0418
-68937.435	-55134.945	-105069.87	-18625.23	0.0	0.0	0.0	0.0	0.0	0.0	0.0	0.0	0.0	0.0	0.0	0.0	0.0	0.0	146.0	0.0	0.034728915	0.010986300000000001	1.0205052000000001	2.1364	0.01526	-1.0834599999999999	3314659.0	1776545019.924709	0.0	1.0	-1.0	-1.0	-1.0	-1.0	-1.0	-1.0	-1.0	-1.0	0.0	marker	peace	Peace	30	0418
-68971.905	-55150.92	-105121.98	-18687.87	0.0	0.0	0.0	0.0	0.0	0.0	0.0	0.0	0.0	0.0	0.0	0.0	0.0	0.0	146.0	0.0	0.044738655	0.00573729	1.00719957	2.39582	1.05294	-0.42728	3314660.0	1776545019.926082	0.0	1.0	-1.0	-1.0	-1.0	-1.0	-1.0	-1.0	-1.0	-1.0	0.0	marker	peace	Peace	30	0418
-68964.345	-55165.814999999995	-105117.795	-18686.16	0.0	0.0	0.0	0.0	0.0	0.0	0.0	0.0	0.0	0.0	0.0	0.0	0.0	0.0	146.0	0.0	0.044738655	0.00573729	1.00719957	2.39582	1.05294	-0.42728	3314661.0	1776545019.926093	0.0	1.0	-1.0	-1.0	-1.0	-1.0	-1.0	-1.0	-1.0	-1.0	0.0	marker	peace	Peace	30	0418
-68929.47	-55177.02	-105049.34999999999	-18616.995	0.0	0.0	0.0	0.0	0.0	0.0	0.0	0.0	0.0	0.0	0.0	0.0	0.0	0.0	146.0	0.0	0.044738655	0.00573729	1.00719957	2.39582	1.05294	-0.42728	3314662.0	1776545019.932699	0.0	1.0	-1.0	-1.0	-1.0	-1.0	-1.0	-1.0	-1.0	-1.0	0.0	marker	peace	Peace	30	0418
-69050.52	-55185.93	-105153.25499999999	-18716.489999999998	0.0	0.0	0.0	0.0	0.0	0.0	0.0	0.0	0.0	0.0	0.0	0.0	0.0	0.0	146.0	0.0	0.044738655	0.00573729	1.00719957	2.39582	1.05294	-0.42728	3314663.0	1776545019.932712	0.0	1.0	-1.0	-1.0	-1.0	-1.0	-1.0	-1.0	-1.0	-1.0	0.0	marker	peace	Peace	30	0418
-69061.095	-55183.32	-105163.37999999999	-18715.32	0.0	0.0	0.0	0.0	0.0	0.0	0.0	0.0	0.0	0.0	0.0	0.0	0.0	0.0	146.0	0.0	0.044738655	0.00573729	1.00719957	2.39582	1.05294	-0.42728	3314664.0	1776545019.935588	0.0	1.0	-1.0	-1.0	-1.0	-1.0	-1.0	-1.0	-1.0	-1.0	0.0	marker	peace	Peace	30	0418
-68985.54	-55155.825	-105119.01	-18683.1	0.0	0.0	0.0	0.0	0.0	0.0	0.0	0.0	0.0	0.0	0.0	0.0	0.0	0.0	146.0	0.0	0.044738655	0.00573729	1.00719957	2.39582	1.05294	-0.42728	3314665.0	1776545019.935621	0.0	1.0	-1.0	-1.0	-1.0	-1.0	-1.0	-1.0	-1.0	-1.0	0.0	marker	peace	Peace	30	0418
-69008.04	-55055.115	-105127.155	-18689.625	0.0	0.0	0.0	0.0	0.0	0.0	0.0	0.0	0.0	0.0	0.0	0.0	0.0	0.0	146.0	0.0	0.044738655	0.00573729	1.00719957	2.39582	1.05294	-0.42728	3314666.0	1776545019.941728	0.0	1.0	-1.0	-1.0	-1.0	-1.0	-1.0	-1.0	-1.0	-1.0	0.0	marker	peace	Peace	30	0418
-69024.105	-55004.67	-105131.565	-18688.32	0.0	0.0	0.0	0.0	0.0	0.0	0.0	0.0	0.0	0.0	0.0	0.0	0.0	0.0	146.0	0.0	0.044738655	0.00573729	1.00719957	2.39582	1.05294	-0.42728	3314667.0	1776545019.941741	0.0	1.0	-1.0	-1.0	-1.0	-1.0	-1.0	-1.0	-1.0	-1.0	0.0	marker	peace	Peace	30	0418
-68951.06999999999	-55003.32	-105097.76999999999	-18677.88	0.0	0.0	0.0	0.0	0.0	0.0	0.0	0.0	0.0	0.0	0.0	0.0	0.0	0.0	146.0	0.0	0.044738655	0.00573729	1.00719957	2.39582	1.05294	-0.42728	3314668.0	1776545019.944788	0.0	1.0	-1.0	-1.0	-1.0	-1.0	-1.0	-1.0	-1.0	-1.0	0.0	marker	peace	Peace	30	0418
-69029.01	-55013.895	-105145.065	-18713.79	0.0	0.0	0.0	0.0	0.0	0.0	0.0	0.0	0.0	0.0	0.0	0.0	0.0	0.0	146.0	0.0	0.044738655	0.00573729	1.00719957	2.39582	1.05294	-0.42728	3314669.0	1776545019.944799	0.0	1.0	-1.0	-1.0	-1.0	-1.0	-1.0	-1.0	-1.0	-1.0	0.0	marker	peace	Peace	30	0418
-68966.595	-55012.545	-105042.105	-18607.995	0.0	0.0	0.0	0.0	0.0	0.0	0.0	0.0	0.0	0.0	0.0	0.0	0.0	0.0	146.0	0.0	0.043517955000000004	-0.004943835	1.000912965	2.27374	1.8312	-0.88508	3314670.0	1776545019.946129	0.0	1.0	-1.0	-1.0	-1.0	-1.0	-1.0	-1.0	-1.0	-1.0	0.0	marker	peace	Peace	30	0418
-68997.105	-55006.2	-105069.735	-18657.27	0.0	0.0	0.0	0.0	0.0	0.0	0.0	0.0	0.0	0.0	0.0	0.0	0.0	0.0	146.0	0.0	0.043517955000000004	-0.004943835	1.000912965	2.27374	1.8312	-0.88508	3314671.0	1776545019.946151	0.0	1.0	-1.0	-1.0	-1.0	-1.0	-1.0	-1.0	-1.0	-1.0	0.0	marker	peace	Peace	30	0418
-69046.065	-55003.229999999996	-105149.655	-18717.84	0.0	0.0	0.0	0.0	0.0	0.0	0.0	0.0	0.0	0.0	0.0	0.0	0.0	0.0	146.0	0.0	0.043517955000000004	-0.004943835	1.000912965	2.27374	1.8312	-0.88508	3314672.0	1776545019.951674	0.0	1.0	-1.0	-1.0	-1.0	-1.0	-1.0	-1.0	-1.0	-1.0	0.0	marker	peace	Peace	30	0418
-69040.395	-55007.64	-105191.955	-18735.57	0.0	0.0	0.0	0.0	0.0	0.0	0.0	0.0	0.0	0.0	0.0	0.0	0.0	0.0	146.0	0.0	0.043517955000000004	-0.004943835	1.000912965	2.27374	1.8312	-0.88508	3314673.0	1776545019.951702	0.0	1.0	-1.0	-1.0	-1.0	-1.0	-1.0	-1.0	-1.0	-1.0	0.0	marker	peace	Peace	30	0418
-68986.215	-55015.515	-105167.295	-18729.405	0.0	0.0	0.0	0.0	0.0	0.0	0.0	0.0	0.0	0.0	0.0	0.0	0.0	0.0	146.0	0.0	0.043517955000000004	-0.004943835	1.000912965	2.27374	1.8312	-0.88508	3314674.0	1776545019.954309	0.0	1.0	-1.0	-1.0	-1.0	-1.0	-1.0	-1.0	-1.0	-1.0	0.0	marker	peace	Peace	30	0418
-68983.47	-55009.89	-105109.73999999999	-18694.35	0.0	0.0	0.0	0.0	0.0	0.0	0.0	0.0	0.0	0.0	0.0	0.0	0.0	0.0	146.0	0.0	0.043517955000000004	-0.004943835	1.000912965	2.27374	1.8312	-0.88508	3314675.0	1776545019.95433	0.0	1.0	-1.0	-1.0	-1.0	-1.0	-1.0	-1.0	-1.0	-1.0	0.0	marker	peace	Peace	30	0418
-69065.91	-55004.265	-105091.37999999999	-18680.805	0.0	0.0	0.0	0.0	0.0	0.0	0.0	0.0	0.0	0.0	0.0	0.0	0.0	0.0	146.0	0.0	0.043517955000000004	-0.004943835	1.000912965	2.27374	1.8312	-0.88508	3314676.0	1776545019.958262	0.0	1.0	-1.0	-1.0	-1.0	-1.0	-1.0	-1.0	-1.0	-1.0	0.0	marker	peace	Peace	30	0418
-69025.185	-55006.829999999994	-105085.44	-18653.579999999998	0.0	0.0	0.0	0.0	0.0	0.0	0.0	0.0	0.0	0.0	0.0	0.0	0.0	0.0	146.0	0.0	0.043517955000000004	-0.004943835	1.000912965	2.27374	1.8312	-0.88508	3314677.0	1776545019.958273	0.0	1.0	-1.0	-1.0	-1.0	-1.0	-1.0	-1.0	-1.0	-1.0	0.0	marker	peace	Peace	30	0418
-68993.415	-55015.604999999996	-105106.185	-18656.415	0.0	0.0	0.0	0.0	0.0	0.0	0.0	0.0	0.0	0.0	0.0	0.0	0.0	0.0	146.0	0.0	0.043517955000000004	-0.004943835	1.000912965	2.27374	1.8312	-0.88508	3314678.0	1776545019.962205	0.0	1.0	-1.0	-1.0	-1.0	-1.0	-1.0	-1.0	-1.0	-1.0	0.0	marker	peace	Peace	30	0418
-68995.17	-55027.755	-105135.165	-18678.329999999998	0.0	0.0	0.0	0.0	0.0	0.0	0.0	0.0	0.0	0.0	0.0	0.0	0.0	0.0	146.0	0.0	0.043517955000000004	-0.004943835	1.000912965	2.27374	1.8312	-0.88508	3314679.0	1776545019.962229	0.0	1.0	-1.0	-1.0	-1.0	-1.0	-1.0	-1.0	-1.0	-1.0	0.0	marker	peace	Peace	30	0418
-68998.455	-55035.63	-105122.47499999999	-18680.715	0.0	0.0	0.0	0.0	0.0	0.0	0.0	0.0	0.0	0.0	0.0	0.0	0.0	0.0	146.0	0.0	0.033019935	-0.00463866	1.01745345	3.0672599999999997	0.9613799999999999	-1.05294	3314680.0	1776545019.966208	0.0	1.0	-1.0	-1.0	-1.0	-1.0	-1.0	-1.0	-1.0	-1.0	0.0	marker	peace	Peace	30	0418
-68998.185	-55025.055	-105098.4	-18660.42	0.0	0.0	0.0	0.0	0.0	0.0	0.0	0.0	0.0	0.0	0.0	0.0	0.0	0.0	146.0	0.0	0.033019935	-0.00463866	1.01745345	3.0672599999999997	0.9613799999999999	-1.05294	3314681.0	1776545019.966219	0.0	1.0	-1.0	-1.0	-1.0	-1.0	-1.0	-1.0	-1.0	-1.0	0.0	marker	peace	Peace	30	0418
-69005.745	-55018.125	-105133.095	-18693.495	0.0	0.0	0.0	0.0	0.0	0.0	0.0	0.0	0.0	0.0	0.0	0.0	0.0	0.0	146.0	0.0	0.033019935	-0.00463866	1.01745345	3.0672599999999997	0.9613799999999999	-1.05294	3314682.0	1776545019.971176	0.0	1.0	-1.0	-1.0	-1.0	-1.0	-1.0	-1.0	-1.0	-1.0	0.0	marker	peace	Peace	30	0418
-68997.42	-55009.619999999995	-105160.36499999999	-18699.03	0.0	0.0	0.0	0.0	0.0	0.0	0.0	0.0	0.0	0.0	0.0	0.0	0.0	0.0	146.0	0.0	0.033019935	-0.00463866	1.01745345	3.0672599999999997	0.9613799999999999	-1.05294	3314683.0	1776545019.971195	0.0	1.0	-1.0	-1.0	-1.0	-1.0	-1.0	-1.0	-1.0	-1.0	0.0	marker	peace	Peace	30	0418
-68961.555	-54990.854999999996	-105098.67	-18653.805	0.0	0.0	0.0	0.0	0.0	0.0	0.0	0.0	0.0	0.0	0.0	0.0	0.0	0.0	146.0	0.0	0.033019935	-0.00463866	1.01745345	3.0672599999999997	0.9613799999999999	-1.05294	3314684.0	1776545019.974414	0.0	1.0	-1.0	-1.0	-1.0	-1.0	-1.0	-1.0	-1.0	-1.0	0.0	marker	peace	Peace	30	0418
-69011.055	-54988.155	-105115.40999999999	-18671.579999999998	0.0	0.0	0.0	0.0	0.0	0.0	0.0	0.0	0.0	0.0	0.0	0.0	0.0	0.0	146.0	0.0	0.033019935	-0.00463866	1.01745345	3.0672599999999997	0.9613799999999999	-1.05294	3314685.0	1776545019.974428	0.0	1.0	-1.0	-1.0	-1.0	-1.0	-1.0	-1.0	-1.0	-1.0	0.0	marker	peace	Peace	30	0418
-69002.325	-54997.965	-105104.655	-18649.89	0.0	0.0	0.0	0.0	0.0	0.0	0.0	0.0	0.0	0.0	0.0	0.0	0.0	0.0	146.0	0.0	0.033019935	-0.00463866	1.01745345	3.0672599999999997	0.9613799999999999	-1.05294	3314686.0	1776545019.978564	0.0	1.0	-1.0	-1.0	-1.0	-1.0	-1.0	-1.0	-1.0	-1.0	0.0	marker	peace	Peace	30	0418
-68972.535	-54999.18	-105085.08	-18628.965	0.0	0.0	0.0	0.0	0.0	0.0	0.0	0.0	0.0	0.0	0.0	0.0	0.0	0.0	146.0	0.0	0.033019935	-0.00463866	1.01745345	3.0672599999999997	0.9613799999999999	-1.05294	3314687.0	1776545019.978578	0.0	1.0	-1.0	-1.0	-1.0	-1.0	-1.0	-1.0	-1.0	-1.0	0.0	marker	peace	Peace	30	0418
-68954.22	-54993.329999999994	-105072.075	-18622.215	0.0	0.0	0.0	0.0	0.0	0.0	0.0	0.0	0.0	0.0	0.0	0.0	0.0	0.0	146.0	0.0	0.033019935	-0.00463866	1.01745345	3.0672599999999997	0.9613799999999999	-1.05294	3314688.0	1776545019.9824	0.0	1.0	-1.0	-1.0	-1.0	-1.0	-1.0	-1.0	-1.0	-1.0	0.0	marker	peace	Peace	30	0418
-68984.505	-54979.335	-105104.655	-18654.93	0.0	0.0	0.0	0.0	0.0	0.0	0.0	0.0	0.0	0.0	0.0	0.0	0.0	0.0	146.0	0.0	0.033019935	-0.00463866	1.01745345	3.0672599999999997	0.9613799999999999	-1.05294	3314689.0	1776545019.982416	0.0	1.0	-1.0	-1.0	-1.0	-1.0	-1.0	-1.0	-1.0	-1.0	0.0	marker	peace	Peace	30	0418
-69006.915	-54977.49	-105125.265	-18681.48	0.0	0.0	0.0	0.0	0.0	0.0	0.0	0.0	0.0	0.0	0.0	0.0	0.0	0.0	146.0	0.0	0.03002922	0.000915525	1.02709698	2.45686	0.15259999999999999	-1.2055399999999998	3314690.0	1776545019.986528	0.0	1.0	-1.0	-1.0	-1.0	-1.0	-1.0	-1.0	-1.0	-1.0	0.0	marker	peace	Peace	30	0418
-68917.41	-54974.61	-105045.795	-18613.395	0.0	0.0	0.0	0.0	0.0	0.0	0.0	0.0	0.0	0.0	0.0	0.0	0.0	0.0	146.0	0.0	0.03002922	0.000915525	1.02709698	2.45686	0.15259999999999999	-1.2055399999999998	3314691.0	1776545019.986549	0.0	1.0	-1.0	-1.0	-1.0	-1.0	-1.0	-1.0	-1.0	-1.0	0.0	marker	peace	Peace	30	0418
-69007.14	-54990.225	-105124.905	-18698.85	0.0	0.0	0.0	0.0	0.0	0.0	0.0	0.0	0.0	0.0	0.0	0.0	0.0	0.0	146.0	0.0	0.03002922	0.000915525	1.02709698	2.45686	0.15259999999999999	-1.2055399999999998	3314692.0	1776545019.990399	0.0	1.0	-1.0	-1.0	-1.0	-1.0	-1.0	-1.0	-1.0	-1.0	0.0	marker	peace	Peace	30	0418
-69018.84	-54997.29	-105138.9	-18701.91	0.0	0.0	0.0	0.0	0.0	0.0	0.0	0.0	0.0	0.0	0.0	0.0	0.0	0.0	146.0	0.0	0.03002922	0.000915525	1.02709698	2.45686	0.15259999999999999	-1.2055399999999998	3314693.0	1776545019.990414	0.0	1.0	-1.0	-1.0	-1.0	-1.0	-1.0	-1.0	-1.0	-1.0	0.0	marker	peace	Peace	30	0418
-69006.42	-55003.229999999996	-105140.295	-18683.864999999998	0.0	0.0	0.0	0.0	0.0	0.0	0.0	0.0	0.0	0.0	0.0	0.0	0.0	0.0	146.0	0.0	0.03002922	0.000915525	1.02709698	2.45686	0.15259999999999999	-1.2055399999999998	3314694.0	1776545019.996594	0.0	1.0	-1.0	-1.0	-1.0	-1.0	-1.0	-1.0	-1.0	-1.0	0.0	marker	peace	Peace	30	0418
-69043.68	-55009.395	-105148.17	-18693.405	0.0	0.0	0.0	0.0	0.0	0.0	0.0	0.0	0.0	0.0	0.0	0.0	0.0	0.0	146.0	0.0	0.03002922	0.000915525	1.02709698	2.45686	0.15259999999999999	-1.2055399999999998	3314695.0	1776545019.996617	0.0	1.0	-1.0	-1.0	-1.0	-1.0	-1.0	-1.0	-1.0	-1.0	0.0	marker	peace	Peace	30	0418
-69001.2	-55016.055	-105117.795	-18681.165	0.0	0.0	0.0	0.0	0.0	0.0	0.0	0.0	0.0	0.0	0.0	0.0	0.0	0.0	146.0	0.0	0.03002922	0.000915525	1.02709698	2.45686	0.15259999999999999	-1.2055399999999998	3314696.0	1776545019.99981	0.0	1.0	-1.0	-1.0	-1.0	-1.0	-1.0	-1.0	-1.0	-1.0	0.0	marker	peace	Peace	30	0418
-68879.97	-55012.5	-105034.00499999999	-18603.585	0.0	0.0	0.0	0.0	0.0	0.0	0.0	0.0	0.0	0.0	0.0	0.0	0.0	0.0	146.0	0.0	0.03002922	0.000915525	1.02709698	2.45686	0.15259999999999999	-1.2055399999999998	3314697.0	1776545019.999819	0.0	1.0	-1.0	-1.0	-1.0	-1.0	-1.0	-1.0	-1.0	-1.0	0.0	marker	peace	Peace	30	0418
-68932.755	-55011.735	-105075.765	-18633.96	0.0	0.0	0.0	0.0	0.0	0.0	0.0	0.0	0.0	0.0	0.0	0.0	0.0	0.0	146.0	0.0	0.03002922	0.000915525	1.02709698	2.45686	0.15259999999999999	-1.2055399999999998	3314698.0	1776545020.002498	0.0	1.0	-1.0	-1.0	-1.0	-1.0	-1.0	-1.0	-1.0	-1.0	0.0	marker	peace	Peace	30	0418
-69020.055	-55006.335	-105113.205	-18654.39	0.0	0.0	0.0	0.0	0.0	0.0	0.0	0.0	0.0	0.0	0.0	0.0	0.0	0.0	146.0	0.0	0.03002922	0.000915525	1.02709698	2.45686	0.15259999999999999	-1.2055399999999998	3314699.0	1776545020.002508	0.0	1.0	-1.0	-1.0	-1.0	-1.0	-1.0	-1.0	-1.0	-1.0	0.0	marker	peace	Peace	30	0418
-69002.145	-54992.655	-105106.995	-18655.38	0.0	0.0	0.0	0.0	0.0	0.0	0.0	0.0	0.0	0.0	0.0	0.0	0.0	0.0	146.0	0.0	0.038635155	0.0017089800000000001	1.017392415	2.4263399999999997	0.59514	-0.6103999999999999	3314700.0	1776545020.006415	0.0	1.0	-1.0	-1.0	-1.0	-1.0	-1.0	-1.0	-1.0	-1.0	0.0	marker	peace	Peace	30	0418
-69003.18	-54985.86	-105137.50499999999	-18684.54	0.0	0.0	0.0	0.0	0.0	0.0	0.0	0.0	0.0	0.0	0.0	0.0	0.0	0.0	146.0	0.0	0.038635155	0.0017089800000000001	1.017392415	2.4263399999999997	0.59514	-0.6103999999999999	3314701.0	1776545020.006446	0.0	1.0	-1.0	-1.0	-1.0	-1.0	-1.0	-1.0	-1.0	-1.0	0.0	marker	peace	Peace	30	0418
-69012.855	-54991.89	-105138.045	-18687.555	0.0	0.0	0.0	0.0	0.0	0.0	0.0	0.0	0.0	0.0	0.0	0.0	0.0	0.0	146.0	0.0	0.038635155	0.0017089800000000001	1.017392415	2.4263399999999997	0.59514	-0.6103999999999999	3314702.0	1776545020.010437	0.0	1.0	-1.0	-1.0	-1.0	-1.0	-1.0	-1.0	-1.0	-1.0	0.0	marker	peace	Peace	30	0418
-69013.395	-54995.49	-105124.72499999999	-18689.715	0.0	0.0	0.0	0.0	0.0	0.0	0.0	0.0	0.0	0.0	0.0	0.0	0.0	0.0	146.0	0.0	0.038635155	0.0017089800000000001	1.017392415	2.4263399999999997	0.59514	-0.6103999999999999	3314703.0	1776545020.010449	0.0	1.0	-1.0	-1.0	-1.0	-1.0	-1.0	-1.0	-1.0	-1.0	0.0	marker	peace	Peace	30	0418
-69019.065	-54985.59	-105124.31999999999	-18699.39	0.0	0.0	0.0	0.0	0.0	0.0	0.0	0.0	0.0	0.0	0.0	0.0	0.0	0.0	146.0	0.0	0.038635155	0.0017089800000000001	1.017392415	2.4263399999999997	0.59514	-0.6103999999999999	3314704.0	1776545020.014394	0.0	1.0	-1.0	-1.0	-1.0	-1.0	-1.0	-1.0	-1.0	-1.0	0.0	marker	peace	Peace	30	0418
-69042.735	-54981.18	-105146.64	-18719.64	0.0	0.0	0.0	0.0	0.0	0.0	0.0	0.0	0.0	0.0	0.0	0.0	0.0	0.0	146.0	0.0	0.038635155	0.0017089800000000001	1.017392415	2.4263399999999997	0.59514	-0.6103999999999999	3314705.0	1776545020.014402	0.0	1.0	-1.0	-1.0	-1.0	-1.0	-1.0	-1.0	-1.0	-1.0	0.0	marker	peace	Peace	30	0418
-69022.44	-54976.454999999994	-105126.885	-18702.63	0.0	0.0	0.0	0.0	0.0	0.0	0.0	0.0	0.0	0.0	0.0	0.0	0.0	0.0	146.0	0.0	0.038635155	0.0017089800000000001	1.017392415	2.4263399999999997	0.59514	-0.6103999999999999	3314706.0	1776545020.018676	0.0	1.0	-1.0	-1.0	-1.0	-1.0	-1.0	-1.0	-1.0	-1.0	0.0	marker	peace	Peace	30	0418
-68982.345	-54964.259999999995	-105128.595	-18692.1	0.0	0.0	0.0	0.0	0.0	0.0	0.0	0.0	0.0	0.0	0.0	0.0	0.0	0.0	146.0	0.0	0.038635155	0.0017089800000000001	1.017392415	2.4263399999999997	0.59514	-0.6103999999999999	3314707.0	1776545020.018693	0.0	1.0	-1.0	-1.0	-1.0	-1.0	-1.0	-1.0	-1.0	-1.0	0.0	marker	peace	Peace	30	0418
-69043.68	-54967.32	-105183.315	-18708.165	0.0	0.0	0.0	0.0	0.0	0.0	0.0	0.0	0.0	0.0	0.0	0.0	0.0	0.0	146.0	0.0	0.038635155	0.0017089800000000001	1.017392415	2.4263399999999997	0.59514	-0.6103999999999999	3314708.0	1776545020.022379	0.0	1.0	-1.0	-1.0	-1.0	-1.0	-1.0	-1.0	-1.0	-1.0	0.0	marker	peace	Peace	30	0418
-68959.08	-54968.939999999995	-105094.26	-18611.55	0.0	0.0	0.0	0.0	0.0	0.0	0.0	0.0	0.0	0.0	0.0	0.0	0.0	0.0	146.0	0.0	0.038635155	0.0017089800000000001	1.017392415	2.4263399999999997	0.59514	-0.6103999999999999	3314709.0	1776545020.022386	0.0	1.0	-1.0	-1.0	-1.0	-1.0	-1.0	-1.0	-1.0	-1.0	0.0	marker	peace	Peace	30	0418
-68936.67	-54973.755	-105073.56	-18614.204999999998	0.0	0.0	0.0	0.0	0.0	0.0	0.0	0.0	0.0	0.0	0.0	0.0	0.0	0.0	146.0	0.0	0.04003896	0.00219726	1.00964097	1.6175599999999999	1.17502	0.06104	3314710.0	1776545020.028734	0.0	1.0	-1.0	-1.0	-1.0	-1.0	-1.0	-1.0	-1.0	-1.0	0.0	marker	peace	Peace	30	0418
-69055.33499999999	-54962.82	-105162.885	-18749.34	0.0	0.0	0.0	0.0	0.0	0.0	0.0	0.0	0.0	0.0	0.0	0.0	0.0	0.0	146.0	0.0	0.04003896	0.00219726	1.00964097	1.6175599999999999	1.17502	0.06104	3314711.0	1776545020.028741	0.0	1.0	-1.0	-1.0	-1.0	-1.0	-1.0	-1.0	-1.0	-1.0	0.0	marker	peace	Peace	30	0418
-69021.94499999999	-54941.4	-105114.64499999999	-18707.219999999998	0.0	0.0	0.0	0.0	0.0	0.0	0.0	0.0	0.0	0.0	0.0	0.0	0.0	0.0	146.0	0.0	0.04003896	0.00219726	1.00964097	1.6175599999999999	1.17502	0.06104	3314712.0	1776545020.030456	0.0	1.0	-1.0	-1.0	-1.0	-1.0	-1.0	-1.0	-1.0	-1.0	0.0	marker	peace	Peace	30	0418
-69005.925	-54940.229999999996	-105079.00499999999	-18642.285	0.0	0.0	0.0	0.0	0.0	0.0	0.0	0.0	0.0	0.0	0.0	0.0	0.0	0.0	146.0	0.0	0.04003896	0.00219726	1.00964097	1.6175599999999999	1.17502	0.06104	3314713.0	1776545020.030462	0.0	1.0	-1.0	-1.0	-1.0	-1.0	-1.0	-1.0	-1.0	-1.0	0.0	marker	peace	Peace	30	0418
-69032.52	-54941.13	-105137.90999999999	-18680.579999999998	0.0	0.0	0.0	0.0	0.0	0.0	0.0	0.0	0.0	0.0	0.0	0.0	0.0	0.0	146.0	0.0	0.04003896	0.00219726	1.00964097	1.6175599999999999	1.17502	0.06104	3314714.0	1776545020.035126	0.0	1.0	-1.0	-1.0	-1.0	-1.0	-1.0	-1.0	-1.0	-1.0	0.0	marker	peace	Peace	30	0418
-69054.93	-54938.52	-105201.62999999999	-18741.6	0.0	0.0	0.0	0.0	0.0	0.0	0.0	0.0	0.0	0.0	0.0	0.0	0.0	0.0	146.0	0.0	0.04003896	0.00219726	1.00964097	1.6175599999999999	1.17502	0.06104	3314715.0	1776545020.035133	0.0	1.0	-1.0	-1.0	-1.0	-1.0	-1.0	-1.0	-1.0	-1.0	0.0	marker	peace	Peace	30	0418
-69012.675	-54928.034999999996	-105172.515	-18717.795	0.0	0.0	0.0	0.0	0.0	0.0	0.0	0.0	0.0	0.0	0.0	0.0	0.0	0.0	146.0	0.0	0.04003896	0.00219726	1.00964097	1.6175599999999999	1.17502	0.06104	3314716.0	1776545020.041083	0.0	1.0	-1.0	-1.0	-1.0	-1.0	-1.0	-1.0	-1.0	-1.0	0.0	marker	peace	Peace	30	0418
-68968.44	-54917.415	-105121.8	-18690.84	0.0	0.0	0.0	0.0	0.0	0.0	0.0	0.0	0.0	0.0	0.0	0.0	0.0	0.0	146.0	0.0	0.04003896	0.00219726	1.00964097	1.6175599999999999	1.17502	0.06104	3314717.0	1776545020.0411	0.0	1.0	-1.0	-1.0	-1.0	-1.0	-1.0	-1.0	-1.0	-1.0	0.0	marker	peace	Peace	30	0418
-68943.19499999999	-54914.13	-105068.205	-18630.765	0.0	0.0	0.0	0.0	0.0	0.0	0.0	0.0	0.0	0.0	0.0	0.0	0.0	0.0	146.0	0.0	0.04003896	0.00219726	1.00964097	1.6175599999999999	1.17502	0.06104	3314718.0	1776545020.047164	0.0	1.0	-1.0	-1.0	-1.0	-1.0	-1.0	-1.0	-1.0	-1.0	0.0	marker	peace	Peace	30	0418
-69013.125	-54927.585	-105110.415	-18652.32	0.0	0.0	0.0	0.0	0.0	0.0	0.0	0.0	0.0	0.0	0.0	0.0	0.0	0.0	146.0	0.0	0.04003896	0.00219726	1.00964097	1.6175599999999999	1.17502	0.06104	3314719.0	1776545020.047172	0.0	1.0	-1.0	-1.0	-1.0	-1.0	-1.0	-1.0	-1.0	-1.0	0.0	marker	peace	Peace	30	0418
-69007.185	-54935.369999999995	-105134.12999999999	-18701.055	0.0	0.0	0.0	0.0	0.0	0.0	0.0	0.0	0.0	0.0	0.0	0.0	0.0	0.0	146.0	0.0	0.03442374	0.002990715	1.01488998	1.4497	1.09872	0.56462	3314720.0	1776545020.047179	0.0	1.0	-1.0	-1.0	-1.0	-1.0	-1.0	-1.0	-1.0	-1.0	0.0	marker	peace	Peace	30	0418
-68978.16	-54919.439999999995	-105089.805	-18670.545	0.0	0.0	0.0	0.0	0.0	0.0	0.0	0.0	0.0	0.0	0.0	0.0	0.0	0.0	146.0	0.0	0.03442374	0.002990715	1.01488998	1.4497	1.09872	0.56462	3314721.0	1776545020.047183	0.0	1.0	-1.0	-1.0	-1.0	-1.0	-1.0	-1.0	-1.0	-1.0	0.0	marker	peace	Peace	30	0418
-68965.69499999999	-54913.86	-105073.83	-18638.82	0.0	0.0	0.0	0.0	0.0	0.0	0.0	0.0	0.0	0.0	0.0	0.0	0.0	0.0	146.0	0.0	0.03442374	0.002990715	1.01488998	1.4497	1.09872	0.56462	3314722.0	1776545020.050543	0.0	1.0	-1.0	-1.0	-1.0	-1.0	-1.0	-1.0	-1.0	-1.0	0.0	marker	peace	Peace	30	0418
-68963.76	-54917.729999999996	-105082.92	-18654.255	0.0	0.0	0.0	0.0	0.0	0.0	0.0	0.0	0.0	0.0	0.0	0.0	0.0	0.0	146.0	0.0	0.03442374	0.002990715	1.01488998	1.4497	1.09872	0.56462	3314723.0	1776545020.050549	0.0	1.0	-1.0	-1.0	-1.0	-1.0	-1.0	-1.0	-1.0	-1.0	0.0	marker	peace	Peace	30	0418
-69003.045	-54924.975	-105108.12	-18683.235	0.0	0.0	0.0	0.0	0.0	0.0	0.0	0.0	0.0	0.0	0.0	0.0	0.0	0.0	146.0	0.0	0.03442374	0.002990715	1.01488998	1.4497	1.09872	0.56462	3314724.0	1776545020.054748	0.0	1.0	-1.0	-1.0	-1.0	-1.0	-1.0	-1.0	-1.0	-1.0	0.0	marker	peace	Peace	30	0418
-69012.72	-54933.39	-105151.275	-18697.274999999998	0.0	0.0	0.0	0.0	0.0	0.0	0.0	0.0	0.0	0.0	0.0	0.0	0.0	0.0	146.0	0.0	0.03442374	0.002990715	1.01488998	1.4497	1.09872	0.56462	3314725.0	1776545020.054766	0.0	1.0	-1.0	-1.0	-1.0	-1.0	-1.0	-1.0	-1.0	-1.0	0.0	marker	peace	Peace	30	0418
-69000.165	-54931.5	-105157.26	-18687.015	0.0	0.0	0.0	0.0	0.0	0.0	0.0	0.0	0.0	0.0	0.0	0.0	0.0	0.0	146.0	0.0	0.03442374	0.002990715	1.01488998	1.4497	1.09872	0.56462	3314726.0	1776545020.06134	0.0	1.0	-1.0	-1.0	-1.0	-1.0	-1.0	-1.0	-1.0	-1.0	0.0	marker	peace	Peace	30	0418
-69012.045	-54931.68	-105167.06999999999	-18729.135	0.0	0.0	0.0	0.0	0.0	0.0	0.0	0.0	0.0	0.0	0.0	0.0	0.0	0.0	146.0	0.0	0.03442374	0.002990715	1.01488998	1.4497	1.09872	0.56462	3314727.0	1776545020.061348	0.0	1.0	-1.0	-1.0	-1.0	-1.0	-1.0	-1.0	-1.0	-1.0	0.0	marker	peace	Peace	30	0418
-69025.41	-54930.689999999995	-105158.295	-18723.42	0.0	0.0	0.0	0.0	0.0	0.0	0.0	0.0	0.0	0.0	0.0	0.0	0.0	0.0	146.0	0.0	0.03442374	0.002990715	1.01488998	1.4497	1.09872	0.56462	3314728.0	1776545020.062516	0.0	1.0	-1.0	-1.0	-1.0	-1.0	-1.0	-1.0	-1.0	-1.0	0.0	marker	peace	Peace	30	0418
-68989.41	-54933.119999999995	-105127.965	-18703.934999999998	0.0	0.0	0.0	0.0	0.0	0.0	0.0	0.0	0.0	0.0	0.0	0.0	0.0	0.0	146.0	0.0	0.03442374	0.002990715	1.01488998	1.4497	1.09872	0.56462	3314729.0	1776545020.062523	0.0	1.0	-1.0	-1.0	-1.0	-1.0	-1.0	-1.0	-1.0	-1.0	0.0	marker	peace	Peace	30	0418
-69025.905	-54932.22	-105129.495	-18699.21	0.0	0.0	0.0	0.0	0.0	0.0	0.0	0.0	0.0	0.0	0.0	0.0	0.0	0.0	146.0	0.0	0.034973055	-0.006896955	1.01818587	2.2127	0.59514	-0.18312	3314730.0	1776545020.066627	0.0	1.0	-1.0	-1.0	-1.0	-1.0	-1.0	-1.0	-1.0	-1.0	0.0	marker	peace	Peace	30	0418
-69025.14	-54921.375	-105129.36	-18678.059999999998	0.0	0.0	0.0	0.0	0.0	0.0	0.0	0.0	0.0	0.0	0.0	0.0	0.0	0.0	146.0	0.0	0.034973055	-0.006896955	1.01818587	2.2127	0.59514	-0.18312	3314731.0	1776545020.066632	0.0	1.0	-1.0	-1.0	-1.0	-1.0	-1.0	-1.0	-1.0	-1.0	0.0	marker	peace	Peace	30	0418
-69037.065	-54912.915	-105125.08499999999	-18693.09	0.0	0.0	0.0	0.0	0.0	0.0	0.0	0.0	0.0	0.0	0.0	0.0	0.0	0.0	146.0	0.0	0.034973055	-0.006896955	1.01818587	2.2127	0.59514	-0.18312	3314732.0	1776545020.070366	0.0	1.0	-1.0	-1.0	-1.0	-1.0	-1.0	-1.0	-1.0	-1.0	0.0	marker	peace	Peace	30	0418
-69007.59	-54909.18	-105105.015	-18684.989999999998	0.0	0.0	0.0	0.0	0.0	0.0	0.0	0.0	0.0	0.0	0.0	0.0	0.0	0.0	146.0	0.0	0.034973055	-0.006896955	1.01818587	2.2127	0.59514	-0.18312	3314733.0	1776545020.070372	0.0	1.0	-1.0	-1.0	-1.0	-1.0	-1.0	-1.0	-1.0	-1.0	0.0	marker	peace	Peace	30	0418
-68986.44	-54905.805	-105108.93	-18654.93	0.0	0.0	0.0	0.0	0.0	0.0	0.0	0.0	0.0	0.0	0.0	0.0	0.0	0.0	146.0	0.0	0.034973055	-0.006896955	1.01818587	2.2127	0.59514	-0.18312	3314734.0	1776545020.074604	0.0	1.0	-1.0	-1.0	-1.0	-1.0	-1.0	-1.0	-1.0	-1.0	0.0	marker	peace	Peace	30	0418
-68985.09	-54907.74	-105097.59	-18620.28	0.0	0.0	0.0	0.0	0.0	0.0	0.0	0.0	0.0	0.0	0.0	0.0	0.0	0.0	146.0	0.0	0.034973055	-0.006896955	1.01818587	2.2127	0.59514	-0.18312	3314735.0	1776545020.074609	0.0	1.0	-1.0	-1.0	-1.0	-1.0	-1.0	-1.0	-1.0	-1.0	0.0	marker	peace	Peace	30	0418
-69032.83499999999	-54917.729999999996	-105100.965	-18664.065	0.0	0.0	0.0	0.0	0.0	0.0	0.0	0.0	0.0	0.0	0.0	0.0	0.0	0.0	146.0	0.0	0.034973055	-0.006896955	1.01818587	2.2127	0.59514	-0.18312	3314736.0	1776545020.078798	0.0	1.0	-1.0	-1.0	-1.0	-1.0	-1.0	-1.0	-1.0	-1.0	0.0	marker	peace	Peace	30	0418
-69006.95999999999	-54919.439999999995	-105097.76999999999	-18656.954999999998	0.0	0.0	0.0	0.0	0.0	0.0	0.0	0.0	0.0	0.0	0.0	0.0	0.0	0.0	146.0	0.0	0.034973055	-0.006896955	1.01818587	2.2127	0.59514	-0.18312	3314737.0	1776545020.078804	0.0	1.0	-1.0	-1.0	-1.0	-1.0	-1.0	-1.0	-1.0	-1.0	0.0	marker	peace	Peace	30	0418
-68896.53	-54915.884999999995	-105012.855	-18592.739999999998	0.0	0.0	0.0	0.0	0.0	0.0	0.0	0.0	0.0	0.0	0.0	0.0	0.0	0.0	146.0	0.0	0.034973055	-0.006896955	1.01818587	2.2127	0.59514	-0.18312	3314738.0	1776545020.082835	0.0	1.0	-1.0	-1.0	-1.0	-1.0	-1.0	-1.0	-1.0	-1.0	0.0	marker	peace	Peace	30	0418
-68952.735	-54921.42	-105091.065	-18649.62	0.0	0.0	0.0	0.0	0.0	0.0	0.0	0.0	0.0	0.0	0.0	0.0	0.0	0.0	146.0	0.0	0.034973055	-0.006896955	1.01818587	2.2127	0.59514	-0.18312	3314739.0	1776545020.082851	0.0	1.0	-1.0	-1.0	-1.0	-1.0	-1.0	-1.0	-1.0	-1.0	0.0	marker	peace	Peace	30	0418
-69040.845	-54928.755	-105169.72499999999	-18705.87	0.0	0.0	0.0	0.0	0.0	0.0	0.0	0.0	0.0	0.0	0.0	0.0	0.0	0.0	146.0	0.0	0.032531655	-0.0054931500000000005	1.02428937	3.18934	-0.06104	-0.42728	3314740.0	1776545020.08662	0.0	1.0	-1.0	-1.0	-1.0	-1.0	-1.0	-1.0	-1.0	-1.0	0.0	marker	peace	Peace	30	0418
-69012.72	-54922.545	-105106.095	-18675.54	0.0	0.0	0.0	0.0	0.0	0.0	0.0	0.0	0.0	0.0	0.0	0.0	0.0	0.0	146.0	0.0	0.032531655	-0.0054931500000000005	1.02428937	3.18934	-0.06104	-0.42728	3314741.0	1776545020.086625	0.0	1.0	-1.0	-1.0	-1.0	-1.0	-1.0	-1.0	-1.0	-1.0	0.0	marker	peace	Peace	30	0418
-68950.44	-54922.32	-105059.15999999999	-18637.605	0.0	0.0	0.0	0.0	0.0	0.0	0.0	0.0	0.0	0.0	0.0	0.0	0.0	0.0	146.0	0.0	0.032531655	-0.0054931500000000005	1.02428937	3.18934	-0.06104	-0.42728	3314742.0	1776545020.095244	0.0	1.0	-1.0	-1.0	-1.0	-1.0	-1.0	-1.0	-1.0	-1.0	0.0	marker	peace	Peace	30	0418
-68959.125	-54927.314999999995	-105084.58499999999	-18639.09	0.0	0.0	0.0	0.0	0.0	0.0	0.0	0.0	0.0	0.0	0.0	0.0	0.0	0.0	146.0	0.0	0.032531655	-0.0054931500000000005	1.02428937	3.18934	-0.06104	-0.42728	3314743.0	1776545020.095248	0.0	1.0	-1.0	-1.0	-1.0	-1.0	-1.0	-1.0	-1.0	-1.0	0.0	marker	peace	Peace	30	0418
-69026.895	-54941.49	-105146.50499999999	-18714.375	0.0	0.0	0.0	0.0	0.0	0.0	0.0	0.0	0.0	0.0	0.0	0.0	0.0	0.0	146.0	0.0	0.032531655	-0.0054931500000000005	1.02428937	3.18934	-0.06104	-0.42728	3314744.0	1776545020.095253	0.0	1.0	-1.0	-1.0	-1.0	-1.0	-1.0	-1.0	-1.0	-1.0	0.0	marker	peace	Peace	30	0418
-69050.295	-54942.39	-105153.25499999999	-18720.989999999998	0.0	0.0	0.0	0.0	0.0	0.0	0.0	0.0	0.0	0.0	0.0	0.0	0.0	0.0	146.0	0.0	0.032531655	-0.0054931500000000005	1.02428937	3.18934	-0.06104	-0.42728	3314745.0	1776545020.095257	0.0	1.0	-1.0	-1.0	-1.0	-1.0	-1.0	-1.0	-1.0	-1.0	0.0	marker	peace	Peace	30	0418
-69052.905	-54944.954999999994	-105151.995	-18714.51	0.0	0.0	0.0	0.0	0.0	0.0	0.0	0.0	0.0	0.0	0.0	0.0	0.0	0.0	146.0	0.0	0.032531655	-0.0054931500000000005	1.02428937	3.18934	-0.06104	-0.42728	3314746.0	1776545020.098617	0.0	1.0	-1.0	-1.0	-1.0	-1.0	-1.0	-1.0	-1.0	-1.0	0.0	marker	peace	Peace	30	0418
-69011.235	-54908.28	-105130.08	-18690.975	0.0	0.0	0.0	0.0	0.0	0.0	0.0	0.0	0.0	0.0	0.0	0.0	0.0	0.0	146.0	0.0	0.032531655	-0.0054931500000000005	1.02428937	3.18934	-0.06104	-0.42728	3314747.0	1776545020.098621	0.0	1.0	-1.0	-1.0	-1.0	-1.0	-1.0	-1.0	-1.0	-1.0	0.0	marker	peace	Peace	30	0418
-68994.94499999999	-54808.064999999995	-105116.04	-18680.309999999998	0.0	0.0	0.0	0.0	0.0	0.0	0.0	0.0	0.0	0.0	0.0	0.0	0.0	0.0	146.0	0.0	0.032531655	-0.0054931500000000005	1.02428937	3.18934	-0.06104	-0.42728	3314748.0	1776545020.102723	0.0	1.0	-1.0	-1.0	-1.0	-1.0	-1.0	-1.0	-1.0	-1.0	0.0	marker	peace	Peace	30	0418
-69031.53	-54781.92	-105152.08499999999	-18713.88	0.0	0.0	0.0	0.0	0.0	0.0	0.0	0.0	0.0	0.0	0.0	0.0	0.0	0.0	146.0	0.0	0.032531655	-0.0054931500000000005	1.02428937	3.18934	-0.06104	-0.42728	3314749.0	1776545020.102728	0.0	1.0	-1.0	-1.0	-1.0	-1.0	-1.0	-1.0	-1.0	-1.0	0.0	marker	peace	Peace	30	0418
-69042.33	-54779.265	-105149.295	-18702.54	0.0	0.0	0.0	0.0	0.0	0.0	0.0	0.0	0.0	0.0	0.0	0.0	0.0	0.0	146.0	0.0	0.0341796	0.0036621	1.01952864	1.25132	0.27468	0.30519999999999997	3314750.0	1776545020.106729	0.0	1.0	-1.0	-1.0	-1.0	-1.0	-1.0	-1.0	-1.0	-1.0	0.0	marker	peace	Peace	30	0418
-69027.48	-54777.645	-105167.295	-18702.18	0.0	0.0	0.0	0.0	0.0	0.0	0.0	0.0	0.0	0.0	0.0	0.0	0.0	0.0	146.0	0.0	0.0341796	0.0036621	1.01952864	1.25132	0.27468	0.30519999999999997	3314751.0	1776545020.106734	0.0	1.0	-1.0	-1.0	-1.0	-1.0	-1.0	-1.0	-1.0	-1.0	0.0	marker	peace	Peace	30	0418
-69012.495	-54783.27	-105145.47	-18690.885	0.0	0.0	0.0	0.0	0.0	0.0	0.0	0.0	0.0	0.0	0.0	0.0	0.0	0.0	146.0	0.0	0.0341796	0.0036621	1.01952864	1.25132	0.27468	0.30519999999999997	3314752.0	1776545020.110762	0.0	1.0	-1.0	-1.0	-1.0	-1.0	-1.0	-1.0	-1.0	-1.0	0.0	marker	peace	Peace	30	0418
-69031.305	-54789.795	-105119.55	-18690.165	0.0	0.0	0.0	0.0	0.0	0.0	0.0	0.0	0.0	0.0	0.0	0.0	0.0	0.0	146.0	0.0	0.0341796	0.0036621	1.01952864	1.25132	0.27468	0.30519999999999997	3314753.0	1776545020.110766	0.0	1.0	-1.0	-1.0	-1.0	-1.0	-1.0	-1.0	-1.0	-1.0	0.0	marker	peace	Peace	30	0418
-68985.94499999999	-54790.47	-105085.03499999999	-18656.505	0.0	0.0	0.0	0.0	0.0	0.0	0.0	0.0	0.0	0.0	0.0	0.0	0.0	0.0	146.0	0.0	0.0341796	0.0036621	1.01952864	1.25132	0.27468	0.30519999999999997	3314754.0	1776545020.114728	0.0	1.0	-1.0	-1.0	-1.0	-1.0	-1.0	-1.0	-1.0	-1.0	0.0	marker	peace	Peace	30	0418
-68930.28	-54790.829999999994	-105049.34999999999	-18616.59	0.0	0.0	0.0	0.0	0.0	0.0	0.0	0.0	0.0	0.0	0.0	0.0	0.0	0.0	146.0	0.0	0.0341796	0.0036621	1.01952864	1.25132	0.27468	0.30519999999999997	3314755.0	1776545020.114738	0.0	1.0	-1.0	-1.0	-1.0	-1.0	-1.0	-1.0	-1.0	-1.0	0.0	marker	peace	Peace	30	0418
-69052.05	-54795.195	-105160.05	-18716.355	0.0	0.0	0.0	0.0	0.0	0.0	0.0	0.0	0.0	0.0	0.0	0.0	0.0	0.0	146.0	0.0	0.0341796	0.0036621	1.01952864	1.25132	0.27468	0.30519999999999997	3314756.0	1776545020.129466	0.0	1.0	-1.0	-1.0	-1.0	-1.0	-1.0	-1.0	-1.0	-1.0	0.0	marker	peace	Peace	30	0418
-69004.98	-54797.354999999996	-105157.34999999999	-18699.524999999998	0.0	0.0	0.0	0.0	0.0	0.0	0.0	0.0	0.0	0.0	0.0	0.0	0.0	0.0	146.0	0.0	0.0341796	0.0036621	1.01952864	1.25132	0.27468	0.30519999999999997	3314757.0	1776545020.129476	0.0	1.0	-1.0	-1.0	-1.0	-1.0	-1.0	-1.0	-1.0	-1.0	0.0	marker	peace	Peace	30	0418
-69005.565	-54797.22	-105144.885	-18688.815	0.0	0.0	0.0	0.0	0.0	0.0	0.0	0.0	0.0	0.0	0.0	0.0	0.0	0.0	146.0	0.0	0.0341796	0.0036621	1.01952864	1.25132	0.27468	0.30519999999999997	3314758.0	1776545020.129969	0.0	1.0	-1.0	-1.0	-1.0	-1.0	-1.0	-1.0	-1.0	-1.0	0.0	marker	peace	Peace	30	0418
-69021.09	-54790.47	-105158.565	-18703.98	0.0	0.0	0.0	0.0	0.0	0.0	0.0	0.0	0.0	0.0	0.0	0.0	0.0	0.0	146.0	0.0	0.0341796	0.0036621	1.01952864	1.25132	0.27468	0.30519999999999997	3314759.0	1776545020.129975	0.0	1.0	-1.0	-1.0	-1.0	-1.0	-1.0	-1.0	-1.0	-1.0	0.0	marker	peace	Peace	30	0418
-69034.095	-54787.454999999994	-105158.925	-18708.48	0.0	0.0	0.0	0.0	0.0	0.0	0.0	0.0	0.0	0.0	0.0	0.0	0.0	0.0	146.0	0.0	0.03613272	-0.00073242	1.01403549	1.526	0.57988	0.2289	3314760.0	1776545020.12998	0.0	1.0	-1.0	-1.0	-1.0	-1.0	-1.0	-1.0	-1.0	-1.0	0.0	marker	peace	Peace	30	0418
-69035.265	-54787.5	-105153.345	-18711.0	0.0	0.0	0.0	0.0	0.0	0.0	0.0	0.0	0.0	0.0	0.0	0.0	0.0	0.0	146.0	0.0	0.03613272	-0.00073242	1.01403549	1.526	0.57988	0.2289	3314761.0	1776545020.129984	0.0	1.0	-1.0	-1.0	-1.0	-1.0	-1.0	-1.0	-1.0	-1.0	0.0	marker	peace	Peace	30	0418
-68938.065	-54786.869999999995	-105056.28	-18628.2	0.0	0.0	0.0	0.0	0.0	0.0	0.0	0.0	0.0	0.0	0.0	0.0	0.0	0.0	146.0	0.0	0.03613272	-0.00073242	1.01403549	1.526	0.57988	0.2289	3314762.0	1776545020.130863	0.0	1.0	-1.0	-1.0	-1.0	-1.0	-1.0	-1.0	-1.0	-1.0	0.0	marker	peace	Peace	30	0418
-68969.205	-54788.67	-105076.98	-18637.245	0.0	0.0	0.0	0.0	0.0	0.0	0.0	0.0	0.0	0.0	0.0	0.0	0.0	0.0	146.0	0.0	0.03613272	-0.00073242	1.01403549	1.526	0.57988	0.2289	3314763.0	1776545020.130869	0.0	1.0	-1.0	-1.0	-1.0	-1.0	-1.0	-1.0	-1.0	-1.0	0.0	marker	peace	Peace	30	0418
-69011.415	-54788.13	-105128.90999999999	-18690.614999999998	0.0	0.0	0.0	0.0	0.0	0.0	0.0	0.0	0.0	0.0	0.0	0.0	0.0	0.0	146.0	0.0	0.03613272	-0.00073242	1.01403549	1.526	0.57988	0.2289	3314764.0	1776545020.13756	0.0	1.0	-1.0	-1.0	-1.0	-1.0	-1.0	-1.0	-1.0	-1.0	0.0	marker	peace	Peace	30	0418
-69028.29	-54792.494999999995	-105153.345	-18708.3	0.0	0.0	0.0	0.0	0.0	0.0	0.0	0.0	0.0	0.0	0.0	0.0	0.0	0.0	146.0	0.0	0.03613272	-0.00073242	1.01403549	1.526	0.57988	0.2289	3314765.0	1776545020.137576	0.0	1.0	-1.0	-1.0	-1.0	-1.0	-1.0	-1.0	-1.0	-1.0	0.0	marker	peace	Peace	30	0418
-69032.205	-54803.295	-105162.39	-18706.905	0.0	0.0	0.0	0.0	0.0	0.0	0.0	0.0	0.0	0.0	0.0	0.0	0.0	0.0	146.0	0.0	0.03613272	-0.00073242	1.01403549	1.526	0.57988	0.2289	3314766.0	1776545020.140376	0.0	1.0	-1.0	-1.0	-1.0	-1.0	-1.0	-1.0	-1.0	-1.0	0.0	marker	peace	Peace	30	0418
-69008.715	-54815.895	-105144.435	-18699.255	0.0	0.0	0.0	0.0	0.0	0.0	0.0	0.0	0.0	0.0	0.0	0.0	0.0	0.0	146.0	0.0	0.03613272	-0.00073242	1.01403549	1.526	0.57988	0.2289	3314767.0	1776545020.14038	0.0	1.0	-1.0	-1.0	-1.0	-1.0	-1.0	-1.0	-1.0	-1.0	0.0	marker	peace	Peace	30	0418
-68997.105	-54822.24	-105131.655	-18704.25	0.0	0.0	0.0	0.0	0.0	0.0	0.0	0.0	0.0	0.0	0.0	0.0	0.0	0.0	146.0	0.0	0.03613272	-0.00073242	1.01403549	1.526	0.57988	0.2289	3314768.0	1776545020.143319	0.0	1.0	-1.0	-1.0	-1.0	-1.0	-1.0	-1.0	-1.0	-1.0	0.0	marker	peace	Peace	30	0418
-69019.92	-54831.104999999996	-105123.915	-18690.39	0.0	0.0	0.0	0.0	0.0	0.0	0.0	0.0	0.0	0.0	0.0	0.0	0.0	0.0	146.0	0.0	0.03613272	-0.00073242	1.01403549	1.526	0.57988	0.2289	3314769.0	1776545020.143348	0.0	1.0	-1.0	-1.0	-1.0	-1.0	-1.0	-1.0	-1.0	-1.0	0.0	marker	peace	Peace	30	0418
-69019.69499999999	-54832.32	-105126.93	-18689.67	0.0	0.0	0.0	0.0	0.0	0.0	0.0	0.0	0.0	0.0	0.0	0.0	0.0	0.0	146.0	0.0	0.036193755	-0.009094215000000001	1.013181	2.8383599999999998	0.71722	-0.62566	3314770.0	1776545020.152179	0.0	1.0	-1.0	-1.0	-1.0	-1.0	-1.0	-1.0	-1.0	-1.0	0.0	marker	peace	Peace	30	0418
-69003.72	-54830.34	-105100.515	-18658.98	0.0	0.0	0.0	0.0	0.0	0.0	0.0	0.0	0.0	0.0	0.0	0.0	0.0	0.0	146.0	0.0	0.036193755	-0.009094215000000001	1.013181	2.8383599999999998	0.71722	-0.62566	3314771.0	1776545020.152194	0.0	1.0	-1.0	-1.0	-1.0	-1.0	-1.0	-1.0	-1.0	-1.0	0.0	marker	peace	Peace	30	0418
-68961.735	-54830.655	-105064.92	-18616.905	0.0	0.0	0.0	0.0	0.0	0.0	0.0	0.0	0.0	0.0	0.0	0.0	0.0	0.0	146.0	0.0	0.036193755	-0.009094215000000001	1.013181	2.8383599999999998	0.71722	-0.62566	3314772.0	1776545020.152213	0.0	1.0	-1.0	-1.0	-1.0	-1.0	-1.0	-1.0	-1.0	-1.0	0.0	marker	peace	Peace	30	0418
-68951.295	-54835.604999999996	-105071.625	-18629.91	0.0	0.0	0.0	0.0	0.0	0.0	0.0	0.0	0.0	0.0	0.0	0.0	0.0	0.0	146.0	0.0	0.036193755	-0.009094215000000001	1.013181	2.8383599999999998	0.71722	-0.62566	3314773.0	1776545020.152222	0.0	1.0	-1.0	-1.0	-1.0	-1.0	-1.0	-1.0	-1.0	-1.0	0.0	marker	peace	Peace	30	0418
-68955.345	-54833.579999999994	-105060.015	-18650.745	0.0	0.0	0.0	0.0	0.0	0.0	0.0	0.0	0.0	0.0	0.0	0.0	0.0	0.0	146.0	0.0	0.036193755	-0.009094215000000001	1.013181	2.8383599999999998	0.71722	-0.62566	3314774.0	1776545020.15655	0.0	1.0	-1.0	-1.0	-1.0	-1.0	-1.0	-1.0	-1.0	-1.0	0.0	marker	peace	Peace	30	0418
-69001.56	-54875.115	-105086.06999999999	-18665.28	0.0	0.0	0.0	0.0	0.0	0.0	0.0	0.0	0.0	0.0	0.0	0.0	0.0	0.0	146.0	0.0	0.036193755	-0.009094215000000001	1.013181	2.8383599999999998	0.71722	-0.62566	3314775.0	1776545020.156565	0.0	1.0	-1.0	-1.0	-1.0	-1.0	-1.0	-1.0	-1.0	-1.0	0.0	marker	peace	Peace	30	0418
-68989.14	-54905.625	-105097.72499999999	-18662.895	0.0	0.0	0.0	0.0	0.0	0.0	0.0	0.0	0.0	0.0	0.0	0.0	0.0	0.0	146.0	0.0	0.036193755	-0.009094215000000001	1.013181	2.8383599999999998	0.71722	-0.62566	3314776.0	1776545020.158886	0.0	1.0	-1.0	-1.0	-1.0	-1.0	-1.0	-1.0	-1.0	-1.0	0.0	marker	peace	Peace	30	0418
-69003.27	-54904.275	-105112.26	-18666.809999999998	0.0	0.0	0.0	0.0	0.0	0.0	0.0	0.0	0.0	0.0	0.0	0.0	0.0	0.0	146.0	0.0	0.036193755	-0.009094215000000001	1.013181	2.8383599999999998	0.71722	-0.62566	3314777.0	1776545020.158901	0.0	1.0	-1.0	-1.0	-1.0	-1.0	-1.0	-1.0	-1.0	-1.0	0.0	marker	peace	Peace	30	0418
-69030.0	-54921.689999999995	-105147.495	-18693.54	0.0	0.0	0.0	0.0	0.0	0.0	0.0	0.0	0.0	0.0	0.0	0.0	0.0	0.0	146.0	0.0	0.036193755	-0.009094215000000001	1.013181	2.8383599999999998	0.71722	-0.62566	3314778.0	1776545020.163003	0.0	1.0	-1.0	-1.0	-1.0	-1.0	-1.0	-1.0	-1.0	-1.0	0.0	marker	peace	Peace	30	0418
-68987.11499999999	-54935.82	-105109.425	-18689.579999999998	0.0	0.0	0.0	0.0	0.0	0.0	0.0	0.0	0.0	0.0	0.0	0.0	0.0	0.0	146.0	0.0	0.036193755	-0.009094215000000001	1.013181	2.8383599999999998	0.71722	-0.62566	3314779.0	1776545020.163018	0.0	1.0	-1.0	-1.0	-1.0	-1.0	-1.0	-1.0	-1.0	-1.0	0.0	marker	peace	Peace	30	0418
-68998.455	-54936.63	-105137.45999999999	-18685.755	0.0	0.0	0.0	0.0	0.0	0.0	0.0	0.0	0.0	0.0	0.0	0.0	0.0	0.0	146.0	0.0	0.03527823	-0.010314915000000001	1.018124835	3.41824	0.82404	-0.9003399999999999	3314780.0	1776545020.167189	0.0	1.0	-1.0	-1.0	-1.0	-1.0	-1.0	-1.0	-1.0	-1.0	0.0	marker	peace	Peace	30	0418
-68993.55	-54919.619999999995	-105122.47499999999	-18680.219999999998	0.0	0.0	0.0	0.0	0.0	0.0	0.0	0.0	0.0	0.0	0.0	0.0	0.0	0.0	146.0	0.0	0.03527823	-0.010314915000000001	1.018124835	3.41824	0.82404	-0.9003399999999999	3314781.0	1776545020.167204	0.0	1.0	-1.0	-1.0	-1.0	-1.0	-1.0	-1.0	-1.0	-1.0	0.0	marker	peace	Peace	30	0418
-68975.64	-54906.659999999996	-105115.905	-18690.66	0.0	0.0	0.0	0.0	0.0	0.0	0.0	0.0	0.0	0.0	0.0	0.0	0.0	0.0	146.0	0.0	0.03527823	-0.010314915000000001	1.018124835	3.41824	0.82404	-0.9003399999999999	3314782.0	1776545020.175329	0.0	1.0	-1.0	-1.0	-1.0	-1.0	-1.0	-1.0	-1.0	-1.0	0.0	marker	peace	Peace	30	0418
-68964.705	-54891.09	-105072.25499999999	-18640.8	0.0	0.0	0.0	0.0	0.0	0.0	0.0	0.0	0.0	0.0	0.0	0.0	0.0	0.0	146.0	0.0	0.03527823	-0.010314915000000001	1.018124835	3.41824	0.82404	-0.9003399999999999	3314783.0	1776545020.175334	0.0	1.0	-1.0	-1.0	-1.0	-1.0	-1.0	-1.0	-1.0	-1.0	0.0	marker	peace	Peace	30	0418
-68872.23	-54880.064999999995	-104984.415	-18555.75	0.0	0.0	0.0	0.0	0.0	0.0	0.0	0.0	0.0	0.0	0.0	0.0	0.0	0.0	146.0	0.0	0.03527823	-0.010314915000000001	1.018124835	3.41824	0.82404	-0.9003399999999999	3314784.0	1776545020.175339	0.0	1.0	-1.0	-1.0	-1.0	-1.0	-1.0	-1.0	-1.0	-1.0	0.0	marker	peace	Peace	30	0418
-69015.87	-54885.015	-105146.775	-18693.045	0.0	0.0	0.0	0.0	0.0	0.0	0.0	0.0	0.0	0.0	0.0	0.0	0.0	0.0	146.0	0.0	0.03527823	-0.010314915000000001	1.018124835	3.41824	0.82404	-0.9003399999999999	3314785.0	1776545020.175344	0.0	1.0	-1.0	-1.0	-1.0	-1.0	-1.0	-1.0	-1.0	-1.0	0.0	marker	peace	Peace	30	0418
-69044.04	-54885.915	-105138.315	-18672.975	0.0	0.0	0.0	0.0	0.0	0.0	0.0	0.0	0.0	0.0	0.0	0.0	0.0	0.0	146.0	0.0	0.03527823	-0.010314915000000001	1.018124835	3.41824	0.82404	-0.9003399999999999	3314786.0	1776545020.179198	0.0	1.0	-1.0	-1.0	-1.0	-1.0	-1.0	-1.0	-1.0	-1.0	0.0	marker	peace	Peace	30	0418
-68971.14	-54888.75	-105070.68	-18612.809999999998	0.0	0.0	0.0	0.0	0.0	0.0	0.0	0.0	0.0	0.0	0.0	0.0	0.0	0.0	146.0	0.0	0.03527823	-0.010314915000000001	1.018124835	3.41824	0.82404	-0.9003399999999999	3314787.0	1776545020.179212	0.0	1.0	-1.0	-1.0	-1.0	-1.0	-1.0	-1.0	-1.0	-1.0	0.0	marker	peace	Peace	30	0418
-69018.56999999999	-54900.945	-105135.39	-18687.87	0.0	0.0	0.0	0.0	0.0	0.0	0.0	0.0	0.0	0.0	0.0	0.0	0.0	0.0	146.0	0.0	0.03527823	-0.010314915000000001	1.018124835	3.41824	0.82404	-0.9003399999999999	3314788.0	1776545020.184976	0.0	1.0	-1.0	-1.0	-1.0	-1.0	-1.0	-1.0	-1.0	-1.0	0.0	marker	peace	Peace	30	0418
-69084.98999999999	-54907.515	-105176.025	-18748.17	0.0	0.0	0.0	0.0	0.0	0.0	0.0	0.0	0.0	0.0	0.0	0.0	0.0	0.0	146.0	0.0	0.03527823	-0.010314915000000001	1.018124835	3.41824	0.82404	-0.9003399999999999	3314789.0	1776545020.184991	0.0	1.0	-1.0	-1.0	-1.0	-1.0	-1.0	-1.0	-1.0	-1.0	0.0	marker	peace	Peace	30	0418
-69047.28	-54910.259999999995	-105155.685	-18721.44	0.0	0.0	0.0	0.0	0.0	0.0	0.0	0.0	0.0	0.0	0.0	0.0	0.0	0.0	146.0	0.0	0.03381339	-0.007019025	1.02123762	3.44876	0.28994	-0.85456	3314790.0	1776545020.187225	0.0	1.0	-1.0	-1.0	-1.0	-1.0	-1.0	-1.0	-1.0	-1.0	0.0	marker	peace	Peace	30	0418
-69000.66	-54906.255	-105151.545	-18708.66	0.0	0.0	0.0	0.0	0.0	0.0	0.0	0.0	0.0	0.0	0.0	0.0	0.0	0.0	146.0	0.0	0.03381339	-0.007019025	1.02123762	3.44876	0.28994	-0.85456	3314791.0	1776545020.18724	0.0	1.0	-1.0	-1.0	-1.0	-1.0	-1.0	-1.0	-1.0	-1.0	0.0	marker	peace	Peace	30	0418
-68989.995	-54909.63	-105148.08	-18713.07	0.0	0.0	0.0	0.0	0.0	0.0	0.0	0.0	0.0	0.0	0.0	0.0	0.0	0.0	146.0	0.0	0.03381339	-0.007019025	1.02123762	3.44876	0.28994	-0.85456	3314792.0	1776545020.1911	0.0	1.0	-1.0	-1.0	-1.0	-1.0	-1.0	-1.0	-1.0	-1.0	0.0	marker	peace	Peace	30	0418
-69023.47499999999	-54918.99	-105122.11499999999	-18667.079999999998	0.0	0.0	0.0	0.0	0.0	0.0	0.0	0.0	0.0	0.0	0.0	0.0	0.0	0.0	146.0	0.0	0.03381339	-0.007019025	1.02123762	3.44876	0.28994	-0.85456	3314793.0	1776545020.191115	0.0	1.0	-1.0	-1.0	-1.0	-1.0	-1.0	-1.0	-1.0	-1.0	0.0	marker	peace	Peace	30	0418
-69008.08499999999	-54923.445	-105102.45	-18649.71	0.0	0.0	0.0	0.0	0.0	0.0	0.0	0.0	0.0	0.0	0.0	0.0	0.0	0.0	146.0	0.0	0.03381339	-0.007019025	1.02123762	3.44876	0.28994	-0.85456	3314794.0	1776545020.195151	0.0	1.0	-1.0	-1.0	-1.0	-1.0	-1.0	-1.0	-1.0	-1.0	0.0	marker	peace	Peace	30	0418
-68952.87	-54928.034999999996	-105070.00499999999	-18629.684999999998	0.0	0.0	0.0	0.0	0.0	0.0	0.0	0.0	0.0	0.0	0.0	0.0	0.0	0.0	146.0	0.0	0.03381339	-0.007019025	1.02123762	3.44876	0.28994	-0.85456	3314795.0	1776545020.195167	0.0	1.0	-1.0	-1.0	-1.0	-1.0	-1.0	-1.0	-1.0	-1.0	0.0	marker	peace	Peace	30	0418
-68943.465	-54938.025	-105077.47499999999	-18634.454999999998	0.0	0.0	0.0	0.0	0.0	0.0	0.0	0.0	0.0	0.0	0.0	0.0	0.0	0.0	146.0	0.0	0.03381339	-0.007019025	1.02123762	3.44876	0.28994	-0.85456	3314796.0	1776545020.199208	0.0	1.0	-1.0	-1.0	-1.0	-1.0	-1.0	-1.0	-1.0	-1.0	0.0	marker	peace	Peace	30	0418
-68965.73999999999	-54948.104999999996	-105092.775	-18655.559999999998	0.0	0.0	0.0	0.0	0.0	0.0	0.0	0.0	0.0	0.0	0.0	0.0	0.0	0.0	146.0	0.0	0.03381339	-0.007019025	1.02123762	3.44876	0.28994	-0.85456	3314797.0	1776545020.199222	0.0	1.0	-1.0	-1.0	-1.0	-1.0	-1.0	-1.0	-1.0	-1.0	0.0	marker	peace	Peace	30	0418
-68924.925	-54952.02	-105083.775	-18660.825	0.0	0.0	0.0	0.0	0.0	0.0	0.0	0.0	0.0	0.0	0.0	0.0	0.0	0.0	146.0	0.0	0.03381339	-0.007019025	1.02123762	3.44876	0.28994	-0.85456	3314798.0	1776545020.206386	0.0	1.0	-1.0	-1.0	-1.0	-1.0	-1.0	-1.0	-1.0	-1.0	0.0	marker	peace	Peace	30	0418
-69049.305	-54958.14	-105162.795	-18735.48	0.0	0.0	0.0	0.0	0.0	0.0	0.0	0.0	0.0	0.0	0.0	0.0	0.0	0.0	146.0	0.0	0.03381339	-0.007019025	1.02123762	3.44876	0.28994	-0.85456	3314799.0	1776545020.206401	0.0	1.0	-1.0	-1.0	-1.0	-1.0	-1.0	-1.0	-1.0	-1.0	0.0	marker	peace	Peace	30	0418
-69087.105	-54962.28	-105166.17	-18723.96	0.0	0.0	0.0	0.0	0.0	0.0	0.0	0.0	0.0	0.0	0.0	0.0	0.0	0.0	146.0	0.0	0.035217195	-0.0054931500000000005	1.02026106	3.6624	0.15259999999999999	-1.09872	3314800.0	1776545020.207139	0.0	1.0	-1.0	-1.0	-1.0	-1.0	-1.0	-1.0	-1.0	-1.0	0.0	marker	peace	Peace	30	0418
-69025.86	-54973.215	-105121.575	-18687.78	0.0	0.0	0.0	0.0	0.0	0.0	0.0	0.0	0.0	0.0	0.0	0.0	0.0	0.0	146.0	0.0	0.035217195	-0.0054931500000000005	1.02026106	3.6624	0.15259999999999999	-1.09872	3314801.0	1776545020.207154	0.0	1.0	-1.0	-1.0	-1.0	-1.0	-1.0	-1.0	-1.0	-1.0	0.0	marker	peace	Peace	30	0418
-69010.02	-54977.805	-105118.01999999999	-18673.785	0.0	0.0	0.0	0.0	0.0	0.0	0.0	0.0	0.0	0.0	0.0	0.0	0.0	0.0	146.0	0.0	0.035217195	-0.0054931500000000005	1.02026106	3.6624	0.15259999999999999	-1.09872	3314802.0	1776545020.213163	0.0	1.0	-1.0	-1.0	-1.0	-1.0	-1.0	-1.0	-1.0	-1.0	0.0	marker	peace	Peace	30	0418
-69026.805	-54970.02	-105160.68	-18691.695	0.0	0.0	0.0	0.0	0.0	0.0	0.0	0.0	0.0	0.0	0.0	0.0	0.0	0.0	146.0	0.0	0.035217195	-0.0054931500000000005	1.02026106	3.6624	0.15259999999999999	-1.09872	3314803.0	1776545020.213178	0.0	1.0	-1.0	-1.0	-1.0	-1.0	-1.0	-1.0	-1.0	-1.0	0.0	marker	peace	Peace	30	0418
-68997.78	-54951.659999999996	-105113.34	-18651.96	0.0	0.0	0.0	0.0	0.0	0.0	0.0	0.0	0.0	0.0	0.0	0.0	0.0	0.0	146.0	0.0	0.035217195	-0.0054931500000000005	1.02026106	3.6624	0.15259999999999999	-1.09872	3314804.0	1776545020.21523	0.0	1.0	-1.0	-1.0	-1.0	-1.0	-1.0	-1.0	-1.0	-1.0	0.0	marker	peace	Peace	30	0418
-68929.605	-54929.43	-105042.95999999999	-18601.695	0.0	0.0	0.0	0.0	0.0	0.0	0.0	0.0	0.0	0.0	0.0	0.0	0.0	0.0	146.0	0.0	0.035217195	-0.0054931500000000005	1.02026106	3.6624	0.15259999999999999	-1.09872	3314805.0	1776545020.215246	0.0	1.0	-1.0	-1.0	-1.0	-1.0	-1.0	-1.0	-1.0	-1.0	0.0	marker	peace	Peace	30	0418
-68893.47	-54903.555	-105008.89499999999	-18581.265	0.0	0.0	0.0	0.0	0.0	0.0	0.0	0.0	0.0	0.0	0.0	0.0	0.0	0.0	146.0	0.0	0.035217195	-0.0054931500000000005	1.02026106	3.6624	0.15259999999999999	-1.09872	3314806.0	1776545020.220486	0.0	1.0	-1.0	-1.0	-1.0	-1.0	-1.0	-1.0	-1.0	-1.0	0.0	marker	peace	Peace	30	0418
-69017.805	-54887.625	-105130.26	-18697.905	0.0	0.0	0.0	0.0	0.0	0.0	0.0	0.0	0.0	0.0	0.0	0.0	0.0	0.0	146.0	0.0	0.035217195	-0.0054931500000000005	1.02026106	3.6624	0.15259999999999999	-1.09872	3314807.0	1776545020.220494	0.0	1.0	-1.0	-1.0	-1.0	-1.0	-1.0	-1.0	-1.0	-1.0	0.0	marker	peace	Peace	30	0418
-69066.495	-54883.305	-105172.37999999999	-18729.945	0.0	0.0	0.0	0.0	0.0	0.0	0.0	0.0	0.0	0.0	0.0	0.0	0.0	0.0	146.0	0.0	0.035217195	-0.0054931500000000005	1.02026106	3.6624	0.15259999999999999	-1.09872	3314808.0	1776545020.223268	0.0	1.0	-1.0	-1.0	-1.0	-1.0	-1.0	-1.0	-1.0	-1.0	0.0	marker	peace	Peace	30	0418
-69033.78	-54892.755	-105150.42	-18715.545	0.0	0.0	0.0	0.0	0.0	0.0	0.0	0.0	0.0	0.0	0.0	0.0	0.0	0.0	146.0	0.0	0.035217195	-0.0054931500000000005	1.02026106	3.6624	0.15259999999999999	-1.09872	3314809.0	1776545020.223276	0.0	1.0	-1.0	-1.0	-1.0	-1.0	-1.0	-1.0	-1.0	-1.0	0.0	marker	peace	Peace	30	0418
-68991.03	-54904.095	-105129.495	-18684.63	0.0	0.0	0.0	0.0	0.0	0.0	0.0	0.0	0.0	0.0	0.0	0.0	0.0	0.0	146.0	0.0	0.037292385	-0.00061035	1.01366928	3.1283	0.48832	-0.15259999999999999	3314810.0	1776545020.228175	0.0	1.0	-1.0	-1.0	-1.0	-1.0	-1.0	-1.0	-1.0	-1.0	0.0	marker	peace	Peace	30	0418
-68980.23	-54913.5	-105098.04	-18648.54	0.0	0.0	0.0	0.0	0.0	0.0	0.0	0.0	0.0	0.0	0.0	0.0	0.0	0.0	146.0	0.0	0.037292385	-0.00061035	1.01366928	3.1283	0.48832	-0.15259999999999999	3314811.0	1776545020.228183	0.0	1.0	-1.0	-1.0	-1.0	-1.0	-1.0	-1.0	-1.0	-1.0	0.0	marker	peace	Peace	30	0418
-69031.17	-54914.49	-105117.56999999999	-18677.024999999998	0.0	0.0	0.0	0.0	0.0	0.0	0.0	0.0	0.0	0.0	0.0	0.0	0.0	0.0	146.0	0.0	0.037292385	-0.00061035	1.01366928	3.1283	0.48832	-0.15259999999999999	3314812.0	1776545020.231177	0.0	1.0	-1.0	-1.0	-1.0	-1.0	-1.0	-1.0	-1.0	-1.0	0.0	marker	peace	Peace	30	0418
-69063.84	-54911.79	-105147.26999999999	-18713.655	0.0	0.0	0.0	0.0	0.0	0.0	0.0	0.0	0.0	0.0	0.0	0.0	0.0	0.0	146.0	0.0	0.037292385	-0.00061035	1.01366928	3.1283	0.48832	-0.15259999999999999	3314813.0	1776545020.231185	0.0	1.0	-1.0	-1.0	-1.0	-1.0	-1.0	-1.0	-1.0	-1.0	0.0	marker	peace	Peace	30	0418
-69016.545	-54897.659999999996	-105116.625	-18698.219999999998	0.0	0.0	0.0	0.0	0.0	0.0	0.0	0.0	0.0	0.0	0.0	0.0	0.0	0.0	146.0	0.0	0.037292385	-0.00061035	1.01366928	3.1283	0.48832	-0.15259999999999999	3314814.0	1776545020.235307	0.0	1.0	-1.0	-1.0	-1.0	-1.0	-1.0	-1.0	-1.0	-1.0	0.0	marker	peace	Peace	30	0418
-68972.265	-54885.78	-105083.01	-18679.274999999998	0.0	0.0	0.0	0.0	0.0	0.0	0.0	0.0	0.0	0.0	0.0	0.0	0.0	0.0	146.0	0.0	0.037292385	-0.00061035	1.01366928	3.1283	0.48832	-0.15259999999999999	3314815.0	1776545020.235325	0.0	1.0	-1.0	-1.0	-1.0	-1.0	-1.0	-1.0	-1.0	-1.0	0.0	marker	peace	Peace	30	0418
-68947.02	-54882.0	-105084.98999999999	-18660.105	0.0	0.0	0.0	0.0	0.0	0.0	0.0	0.0	0.0	0.0	0.0	0.0	0.0	0.0	146.0	0.0	0.037292385	-0.00061035	1.01366928	3.1283	0.48832	-0.15259999999999999	3314816.0	1776545020.2398	0.0	1.0	-1.0	-1.0	-1.0	-1.0	-1.0	-1.0	-1.0	-1.0	0.0	marker	peace	Peace	30	0418
-68981.84999999999	-54889.064999999995	-105139.845	-18692.415	0.0	0.0	0.0	0.0	0.0	0.0	0.0	0.0	0.0	0.0	0.0	0.0	0.0	0.0	146.0	0.0	0.037292385	-0.00061035	1.01366928	3.1283	0.48832	-0.15259999999999999	3314817.0	1776545020.239816	0.0	1.0	-1.0	-1.0	-1.0	-1.0	-1.0	-1.0	-1.0	-1.0	0.0	marker	peace	Peace	30	0418
-69037.29	-54894.689999999995	-105168.59999999999	-18722.79	0.0	0.0	0.0	0.0	0.0	0.0	0.0	0.0	0.0	0.0	0.0	0.0	0.0	0.0	146.0	0.0	0.037292385	-0.00061035	1.01366928	3.1283	0.48832	-0.15259999999999999	3314818.0	1776545020.246056	0.0	1.0	-1.0	-1.0	-1.0	-1.0	-1.0	-1.0	-1.0	-1.0	0.0	marker	peace	Peace	30	0418
-69031.62	-54901.845	-105129.135	-18688.77	0.0	0.0	0.0	0.0	0.0	0.0	0.0	0.0	0.0	0.0	0.0	0.0	0.0	0.0	146.0	0.0	0.037292385	-0.00061035	1.01366928	3.1283	0.48832	-0.15259999999999999	3314819.0	1776545020.246072	0.0	1.0	-1.0	-1.0	-1.0	-1.0	-1.0	-1.0	-1.0	-1.0	0.0	marker	peace	Peace	30	0418
-68992.605	-54912.284999999996	-105089.67	-18663.12	0.0	0.0	0.0	0.0	0.0	0.0	0.0	0.0	0.0	0.0	0.0	0.0	0.0	0.0	146.0	0.0	0.034728915	0.00061035	1.01611068	2.6857599999999997	0.6714399999999999	0.03052	3314820.0	1776545020.248993	0.0	1.0	-1.0	-1.0	-1.0	-1.0	-1.0	-1.0	-1.0	-1.0	0.0	marker	peace	Peace	30	0418
-68965.69499999999	-54916.2	-105061.68	-18645.795	0.0	0.0	0.0	0.0	0.0	0.0	0.0	0.0	0.0	0.0	0.0	0.0	0.0	0.0	146.0	0.0	0.034728915	0.00061035	1.01611068	2.6857599999999997	0.6714399999999999	0.03052	3314821.0	1776545020.249009	0.0	1.0	-1.0	-1.0	-1.0	-1.0	-1.0	-1.0	-1.0	-1.0	0.0	marker	peace	Peace	30	0418
-69005.295	-54914.895	-105125.175	-18674.28	0.0	0.0	0.0	0.0	0.0	0.0	0.0	0.0	0.0	0.0	0.0	0.0	0.0	0.0	146.0	0.0	0.034728915	0.00061035	1.01611068	2.6857599999999997	0.6714399999999999	0.03052	3314822.0	1776545020.251971	0.0	1.0	-1.0	-1.0	-1.0	-1.0	-1.0	-1.0	-1.0	-1.0	0.0	marker	peace	Peace	30	0418
-68971.86	-54900.09	-105099.97499999999	-18643.905	0.0	0.0	0.0	0.0	0.0	0.0	0.0	0.0	0.0	0.0	0.0	0.0	0.0	0.0	146.0	0.0	0.034728915	0.00061035	1.01611068	2.6857599999999997	0.6714399999999999	0.03052	3314823.0	1776545020.25198	0.0	1.0	-1.0	-1.0	-1.0	-1.0	-1.0	-1.0	-1.0	-1.0	0.0	marker	peace	Peace	30	0418
-69001.38	-54888.84	-105119.19	-18677.024999999998	0.0	0.0	0.0	0.0	0.0	0.0	0.0	0.0	0.0	0.0	0.0	0.0	0.0	0.0	146.0	0.0	0.034728915	0.00061035	1.01611068	2.6857599999999997	0.6714399999999999	0.03052	3314824.0	1776545020.255242	0.0	1.0	-1.0	-1.0	-1.0	-1.0	-1.0	-1.0	-1.0	-1.0	0.0	marker	peace	Peace	30	0418
-69037.73999999999	-54889.11	-105174.45	-18711.36	0.0	0.0	0.0	0.0	0.0	0.0	0.0	0.0	0.0	0.0	0.0	0.0	0.0	0.0	146.0	0.0	0.034728915	0.00061035	1.01611068	2.6857599999999997	0.6714399999999999	0.03052	3314825.0	1776545020.255258	0.0	1.0	-1.0	-1.0	-1.0	-1.0	-1.0	-1.0	-1.0	-1.0	0.0	marker	peace	Peace	30	0418
-69011.81999999999	-54901.079999999994	-105123.23999999999	-18678.78	0.0	0.0	0.0	0.0	0.0	0.0	0.0	0.0	0.0	0.0	0.0	0.0	0.0	0.0	146.0	0.0	0.034728915	0.00061035	1.01611068	2.6857599999999997	0.6714399999999999	0.03052	3314826.0	1776545020.259261	0.0	1.0	-1.0	-1.0	-1.0	-1.0	-1.0	-1.0	-1.0	-1.0	0.0	marker	peace	Peace	30	0418
-68917.995	-54898.829999999994	-105039.045	-18616.23	0.0	0.0	0.0	0.0	0.0	0.0	0.0	0.0	0.0	0.0	0.0	0.0	0.0	0.0	146.0	0.0	0.034728915	0.00061035	1.01611068	2.6857599999999997	0.6714399999999999	0.03052	3314827.0	1776545020.259277	0.0	1.0	-1.0	-1.0	-1.0	-1.0	-1.0	-1.0	-1.0	-1.0	0.0	marker	peace	Peace	30	0418
-68919.885	-54898.335	-105032.97	-18612.18	0.0	0.0	0.0	0.0	0.0	0.0	0.0	0.0	0.0	0.0	0.0	0.0	0.0	0.0	146.0	0.0	0.034728915	0.00061035	1.01611068	2.6857599999999997	0.6714399999999999	0.03052	3314828.0	1776545020.263327	0.0	1.0	-1.0	-1.0	-1.0	-1.0	-1.0	-1.0	-1.0	-1.0	0.0	marker	peace	Peace	30	0418
-69027.12	-54912.915	-105124.455	-18703.62	0.0	0.0	0.0	0.0	0.0	0.0	0.0	0.0	0.0	0.0	0.0	0.0	0.0	0.0	146.0	0.0	0.034728915	0.00061035	1.01611068	2.6857599999999997	0.6714399999999999	0.03052	3314829.0	1776545020.263357	0.0	1.0	-1.0	-1.0	-1.0	-1.0	-1.0	-1.0	-1.0	-1.0	0.0	marker	peace	Peace	30	0418
-69015.735	-54922.005	-105139.215	-18717.12	0.0	0.0	0.0	0.0	0.0	0.0	0.0	0.0	0.0	0.0	0.0	0.0	0.0	0.0	146.0	0.0	0.033630285	-0.001159665	1.020322095	2.47212	0.18312	-0.06104	3314830.0	1776545020.267537	0.0	1.0	-1.0	-1.0	-1.0	-1.0	-1.0	-1.0	-1.0	-1.0	0.0	marker	peace	Peace	30	0418
-69009.66	-54923.85	-105124.545	-18690.66	0.0	0.0	0.0	0.0	0.0	0.0	0.0	0.0	0.0	0.0	0.0	0.0	0.0	0.0	146.0	0.0	0.033630285	-0.001159665	1.020322095	2.47212	0.18312	-0.06104	3314831.0	1776545020.267563	0.0	1.0	-1.0	-1.0	-1.0	-1.0	-1.0	-1.0	-1.0	-1.0	0.0	marker	peace	Peace	30	0418
-69032.11499999999	-54916.784999999996	-105126.525	-18678.69	0.0	0.0	0.0	0.0	0.0	0.0	0.0	0.0	0.0	0.0	0.0	0.0	0.0	0.0	146.0	0.0	0.033630285	-0.001159665	1.020322095	2.47212	0.18312	-0.06104	3314832.0	1776545020.271282	0.0	1.0	-1.0	-1.0	-1.0	-1.0	-1.0	-1.0	-1.0	-1.0	0.0	marker	peace	Peace	30	0418
-69025.95	-54895.994999999995	-105119.01	-18664.38	0.0	0.0	0.0	0.0	0.0	0.0	0.0	0.0	0.0	0.0	0.0	0.0	0.0	0.0	146.0	0.0	0.033630285	-0.001159665	1.020322095	2.47212	0.18312	-0.06104	3314833.0	1776545020.271305	0.0	1.0	-1.0	-1.0	-1.0	-1.0	-1.0	-1.0	-1.0	-1.0	0.0	marker	peace	Peace	30	0418
-69010.785	-54881.505	-105118.47	-18667.26	0.0	0.0	0.0	0.0	0.0	0.0	0.0	0.0	0.0	0.0	0.0	0.0	0.0	0.0	146.0	0.0	0.033630285	-0.001159665	1.020322095	2.47212	0.18312	-0.06104	3314834.0	1776545020.275391	0.0	1.0	-1.0	-1.0	-1.0	-1.0	-1.0	-1.0	-1.0	-1.0	0.0	marker	peace	Peace	30	0418
-69001.515	-54876.284999999996	-105115.00499999999	-18670.68	0.0	0.0	0.0	0.0	0.0	0.0	0.0	0.0	0.0	0.0	0.0	0.0	0.0	0.0	146.0	0.0	0.033630285	-0.001159665	1.020322095	2.47212	0.18312	-0.06104	3314835.0	1776545020.275417	0.0	1.0	-1.0	-1.0	-1.0	-1.0	-1.0	-1.0	-1.0	-1.0	0.0	marker	peace	Peace	30	0418
-69008.94	-54886.32	-105119.64	-18679.14	0.0	0.0	0.0	0.0	0.0	0.0	0.0	0.0	0.0	0.0	0.0	0.0	0.0	0.0	146.0	0.0	0.033630285	-0.001159665	1.020322095	2.47212	0.18312	-0.06104	3314836.0	1776545020.2794	0.0	1.0	-1.0	-1.0	-1.0	-1.0	-1.0	-1.0	-1.0	-1.0	0.0	marker	peace	Peace	30	0418
-69008.805	-54899.954999999994	-105128.64	-18688.005	0.0	0.0	0.0	0.0	0.0	0.0	0.0	0.0	0.0	0.0	0.0	0.0	0.0	0.0	146.0	0.0	0.033630285	-0.001159665	1.020322095	2.47212	0.18312	-0.06104	3314837.0	1776545020.279432	0.0	1.0	-1.0	-1.0	-1.0	-1.0	-1.0	-1.0	-1.0	-1.0	0.0	marker	peace	Peace	30	0418
-68974.965	-54904.365	-105100.425	-18665.55	0.0	0.0	0.0	0.0	0.0	0.0	0.0	0.0	0.0	0.0	0.0	0.0	0.0	0.0	146.0	0.0	0.033630285	-0.001159665	1.020322095	2.47212	0.18312	-0.06104	3314838.0	1776545020.286974	0.0	1.0	-1.0	-1.0	-1.0	-1.0	-1.0	-1.0	-1.0	-1.0	0.0	marker	peace	Peace	30	0418
-68979.33	-54908.64	-105106.31999999999	-18675.765	0.0	0.0	0.0	0.0	0.0	0.0	0.0	0.0	0.0	0.0	0.0	0.0	0.0	0.0	146.0	0.0	0.033630285	-0.001159665	1.020322095	2.47212	0.18312	-0.06104	3314839.0	1776545020.286994	0.0	1.0	-1.0	-1.0	-1.0	-1.0	-1.0	-1.0	-1.0	-1.0	0.0	marker	peace	Peace	30	0418
-68999.76	-54909.18	-105113.655	-18690.344999999998	0.0	0.0	0.0	0.0	0.0	0.0	0.0	0.0	0.0	0.0	0.0	0.0	0.0	0.0	146.0	0.0	0.03515616	-0.0008544900000000001	1.020932445	2.45686	0.07629999999999999	-0.19838	3314840.0	1776545020.287354	0.0	1.0	-1.0	-1.0	-1.0	-1.0	-1.0	-1.0	-1.0	-1.0	0.0	marker	peace	Peace	30	0418
-68973.885	-54905.939999999995	-105074.50499999999	-18663.165	0.0	0.0	0.0	0.0	0.0	0.0	0.0	0.0	0.0	0.0	0.0	0.0	0.0	0.0	146.0	0.0	0.03515616	-0.0008544900000000001	1.020932445	2.45686	0.07629999999999999	-0.19838	3314841.0	1776545020.287371	0.0	1.0	-1.0	-1.0	-1.0	-1.0	-1.0	-1.0	-1.0	-1.0	0.0	marker	peace	Peace	30	0418
-68905.395	-54897.525	-105019.245	-18590.489999999998	0.0	0.0	0.0	0.0	0.0	0.0	0.0	0.0	0.0	0.0	0.0	0.0	0.0	0.0	146.0	0.0	0.03515616	-0.0008544900000000001	1.020932445	2.45686	0.07629999999999999	-0.19838	3314842.0	1776545020.29145	0.0	1.0	-1.0	-1.0	-1.0	-1.0	-1.0	-1.0	-1.0	-1.0	0.0	marker	peace	Peace	30	0418
-68922.98999999999	-54891.27	-105075.0	-18610.559999999998	0.0	0.0	0.0	0.0	0.0	0.0	0.0	0.0	0.0	0.0	0.0	0.0	0.0	0.0	146.0	0.0	0.03515616	-0.0008544900000000001	1.020932445	2.45686	0.07629999999999999	-0.19838	3314843.0	1776545020.291472	0.0	1.0	-1.0	-1.0	-1.0	-1.0	-1.0	-1.0	-1.0	-1.0	0.0	marker	peace	Peace	30	0418
-69041.565	-54908.28	-105180.75	-18725.489999999998	0.0	0.0	0.0	0.0	0.0	0.0	0.0	0.0	0.0	0.0	0.0	0.0	0.0	0.0	146.0	0.0	0.03515616	-0.0008544900000000001	1.020932445	2.45686	0.07629999999999999	-0.19838	3314844.0	1776545020.295431	0.0	1.0	-1.0	-1.0	-1.0	-1.0	-1.0	-1.0	-1.0	-1.0	0.0	marker	peace	Peace	30	0418
-69009.39	-54921.015	-105142.905	-18697.454999999998	0.0	0.0	0.0	0.0	0.0	0.0	0.0	0.0	0.0	0.0	0.0	0.0	0.0	0.0	146.0	0.0	0.03515616	-0.0008544900000000001	1.020932445	2.45686	0.07629999999999999	-0.19838	3314845.0	1776545020.295451	0.0	1.0	-1.0	-1.0	-1.0	-1.0	-1.0	-1.0	-1.0	-1.0	0.0	marker	peace	Peace	30	0418
-69021.63	-54928.89	-105104.51999999999	-18664.425	0.0	0.0	0.0	0.0	0.0	0.0	0.0	0.0	0.0	0.0	0.0	0.0	0.0	0.0	146.0	0.0	0.03515616	-0.0008544900000000001	1.020932445	2.45686	0.07629999999999999	-0.19838	3314846.0	1776545020.299415	0.0	1.0	-1.0	-1.0	-1.0	-1.0	-1.0	-1.0	-1.0	-1.0	0.0	marker	peace	Peace	30	0418
-69000.66	-54928.845	-105123.915	-18685.485	0.0	0.0	0.0	0.0	0.0	0.0	0.0	0.0	0.0	0.0	0.0	0.0	0.0	0.0	146.0	0.0	0.03515616	-0.0008544900000000001	1.020932445	2.45686	0.07629999999999999	-0.19838	3314847.0	1776545020.299453	0.0	1.0	-1.0	-1.0	-1.0	-1.0	-1.0	-1.0	-1.0	-1.0	0.0	marker	peace	Peace	30	0418
-69031.305	-54923.939999999995	-105148.305	-18700.065	0.0	0.0	0.0	0.0	0.0	0.0	0.0	0.0	0.0	0.0	0.0	0.0	0.0	0.0	146.0	0.0	0.03515616	-0.0008544900000000001	1.020932445	2.45686	0.07629999999999999	-0.19838	3314848.0	1776545020.303518	0.0	1.0	-1.0	-1.0	-1.0	-1.0	-1.0	-1.0	-1.0	-1.0	0.0	marker	peace	Peace	30	0418
-69058.935	-54917.865	-105172.47	-18716.985	0.0	0.0	0.0	0.0	0.0	0.0	0.0	0.0	0.0	0.0	0.0	0.0	0.0	0.0	146.0	0.0	0.03515616	-0.0008544900000000001	1.020932445	2.45686	0.07629999999999999	-0.19838	3314849.0	1776545020.303543	0.0	1.0	-1.0	-1.0	-1.0	-1.0	-1.0	-1.0	-1.0	-1.0	0.0	marker	peace	Peace	30	0418
-69056.595	-54913.005	-105176.11499999999	-18719.415	0.0	0.0	0.0	0.0	0.0	0.0	0.0	0.0	0.0	0.0	0.0	0.0	0.0	0.0	146.0	0.0	0.033630285	-0.002258295	1.01757552	1.70912	0.24416	-0.21364	3314850.0	1776545020.307457	0.0	1.0	-1.0	-1.0	-1.0	-1.0	-1.0	-1.0	-1.0	-1.0	0.0	marker	peace	Peace	30	0418
-69035.44499999999	-54897.119999999995	-105143.04	-18704.114999999998	0.0	0.0	0.0	0.0	0.0	0.0	0.0	0.0	0.0	0.0	0.0	0.0	0.0	0.0	146.0	0.0	0.033630285	-0.002258295	1.01757552	1.70912	0.24416	-0.21364	3314851.0	1776545020.30747	0.0	1.0	-1.0	-1.0	-1.0	-1.0	-1.0	-1.0	-1.0	-1.0	0.0	marker	peace	Peace	30	0418
-68981.175	-54895.185	-105101.055	-18679.32	0.0	0.0	0.0	0.0	0.0	0.0	0.0	0.0	0.0	0.0	0.0	0.0	0.0	0.0	146.0	0.0	0.033630285	-0.002258295	1.01757552	1.70912	0.24416	-0.21364	3314852.0	1776545020.311451	0.0	1.0	-1.0	-1.0	-1.0	-1.0	-1.0	-1.0	-1.0	-1.0	0.0	marker	peace	Peace	30	0418
-69027.61499999999	-54905.354999999996	-105163.11	-18713.295	0.0	0.0	0.0	0.0	0.0	0.0	0.0	0.0	0.0	0.0	0.0	0.0	0.0	0.0	146.0	0.0	0.033630285	-0.002258295	1.01757552	1.70912	0.24416	-0.21364	3314853.0	1776545020.311469	0.0	1.0	-1.0	-1.0	-1.0	-1.0	-1.0	-1.0	-1.0	-1.0	0.0	marker	peace	Peace	30	0418
-69023.745	-54901.305	-105125.355	-18667.395	0.0	0.0	0.0	0.0	0.0	0.0	0.0	0.0	0.0	0.0	0.0	0.0	0.0	0.0	146.0	0.0	0.033630285	-0.002258295	1.01757552	1.70912	0.24416	-0.21364	3314854.0	1776545020.315642	0.0	1.0	-1.0	-1.0	-1.0	-1.0	-1.0	-1.0	-1.0	-1.0	0.0	marker	peace	Peace	30	0418
-69010.38	-54889.064999999995	-105107.84999999999	-18670.815	0.0	0.0	0.0	0.0	0.0	0.0	0.0	0.0	0.0	0.0	0.0	0.0	0.0	0.0	146.0	0.0	0.033630285	-0.002258295	1.01757552	1.70912	0.24416	-0.21364	3314855.0	1776545020.315672	0.0	1.0	-1.0	-1.0	-1.0	-1.0	-1.0	-1.0	-1.0	-1.0	0.0	marker	peace	Peace	30	0418
-69013.53	-54879.84	-105128.73	-18689.715	0.0	0.0	0.0	0.0	0.0	0.0	0.0	0.0	0.0	0.0	0.0	0.0	0.0	0.0	146.0	0.0	0.033630285	-0.002258295	1.01757552	1.70912	0.24416	-0.21364	3314856.0	1776545020.319515	0.0	1.0	-1.0	-1.0	-1.0	-1.0	-1.0	-1.0	-1.0	-1.0	0.0	marker	peace	Peace	30	0418
-68971.815	-54871.064999999995	-105088.36499999999	-18661.545	0.0	0.0	0.0	0.0	0.0	0.0	0.0	0.0	0.0	0.0	0.0	0.0	0.0	0.0	146.0	0.0	0.033630285	-0.002258295	1.01757552	1.70912	0.24416	-0.21364	3314857.0	1776545020.319541	0.0	1.0	-1.0	-1.0	-1.0	-1.0	-1.0	-1.0	-1.0	-1.0	0.0	marker	peace	Peace	30	0418
-68968.755	-54873.99	-105065.37	-18652.545	0.0	0.0	0.0	0.0	0.0	0.0	0.0	0.0	0.0	0.0	0.0	0.0	0.0	0.0	146.0	0.0	0.033630285	-0.002258295	1.01757552	1.70912	0.24416	-0.21364	3314858.0	1776545020.323452	0.0	1.0	-1.0	-1.0	-1.0	-1.0	-1.0	-1.0	-1.0	-1.0	0.0	marker	peace	Peace	30	0418
-69015.33	-54883.53	-105100.245	-18678.015	0.0	0.0	0.0	0.0	0.0	0.0	0.0	0.0	0.0	0.0	0.0	0.0	0.0	0.0	146.0	0.0	0.033630285	-0.002258295	1.01757552	1.70912	0.24416	-0.21364	3314859.0	1776545020.32348	0.0	1.0	-1.0	-1.0	-1.0	-1.0	-1.0	-1.0	-1.0	-1.0	0.0	marker	peace	Peace	30	0418
-68996.565	-54894.689999999995	-105120.855	-18672.39	0.0	0.0	0.0	0.0	0.0	0.0	0.0	0.0	0.0	0.0	0.0	0.0	0.0	0.0	146.0	0.0	0.03564444	-0.00708006	1.01342514	2.8383599999999998	0.8698199999999999	-0.54936	3314860.0	1776545020.327428	0.0	1.0	-1.0	-1.0	-1.0	-1.0	-1.0	-1.0	-1.0	-1.0	0.0	marker	peace	Peace	30	0418
-68935.005	-54906.39	-105088.5	-18632.925	0.0	0.0	0.0	0.0	0.0	0.0	0.0	0.0	0.0	0.0	0.0	0.0	0.0	0.0	146.0	0.0	0.03564444	-0.00708006	1.01342514	2.8383599999999998	0.8698199999999999	-0.54936	3314861.0	1776545020.327447	0.0	1.0	-1.0	-1.0	-1.0	-1.0	-1.0	-1.0	-1.0	-1.0	0.0	marker	peace	Peace	30	0418
-69011.91	-54914.895	-105126.705	-18679.005	0.0	0.0	0.0	0.0	0.0	0.0	0.0	0.0	0.0	0.0	0.0	0.0	0.0	0.0	146.0	0.0	0.03564444	-0.00708006	1.01342514	2.8383599999999998	0.8698199999999999	-0.54936	3314862.0	1776545020.331534	0.0	1.0	-1.0	-1.0	-1.0	-1.0	-1.0	-1.0	-1.0	-1.0	0.0	marker	peace	Peace	30	0418
-69053.84999999999	-54916.92	-105153.20999999999	-18709.695	0.0	0.0	0.0	0.0	0.0	0.0	0.0	0.0	0.0	0.0	0.0	0.0	0.0	0.0	146.0	0.0	0.03564444	-0.00708006	1.01342514	2.8383599999999998	0.8698199999999999	-0.54936	3314863.0	1776545020.331566	0.0	1.0	-1.0	-1.0	-1.0	-1.0	-1.0	-1.0	-1.0	-1.0	0.0	marker	peace	Peace	30	0418
-68979.645	-54911.204999999994	-105110.955	-18668.114999999998	0.0	0.0	0.0	0.0	0.0	0.0	0.0	0.0	0.0	0.0	0.0	0.0	0.0	0.0	146.0	0.0	0.03564444	-0.00708006	1.01342514	2.8383599999999998	0.8698199999999999	-0.54936	3314864.0	1776545020.335578	0.0	1.0	-1.0	-1.0	-1.0	-1.0	-1.0	-1.0	-1.0	-1.0	0.0	marker	peace	Peace	30	0418
-68976.045	-54904.814999999995	-105099.39	-18651.285	0.0	0.0	0.0	0.0	0.0	0.0	0.0	0.0	0.0	0.0	0.0	0.0	0.0	0.0	146.0	0.0	0.03564444	-0.00708006	1.01342514	2.8383599999999998	0.8698199999999999	-0.54936	3314865.0	1776545020.335609	0.0	1.0	-1.0	-1.0	-1.0	-1.0	-1.0	-1.0	-1.0	-1.0	0.0	marker	peace	Peace	30	0418
-69011.325	-54914.579999999994	-105087.23999999999	-18674.28	0.0	0.0	0.0	0.0	0.0	0.0	0.0	0.0	0.0	0.0	0.0	0.0	0.0	0.0	146.0	0.0	0.03564444	-0.00708006	1.01342514	2.8383599999999998	0.8698199999999999	-0.54936	3314866.0	1776545020.342286	0.0	1.0	-1.0	-1.0	-1.0	-1.0	-1.0	-1.0	-1.0	-1.0	0.0	marker	peace	Peace	30	0418
-69004.34999999999	-54924.795	-105086.61	-18673.605	0.0	0.0	0.0	0.0	0.0	0.0	0.0	0.0	0.0	0.0	0.0	0.0	0.0	0.0	146.0	0.0	0.03564444	-0.00708006	1.01342514	2.8383599999999998	0.8698199999999999	-0.54936	3314867.0	1776545020.342309	0.0	1.0	-1.0	-1.0	-1.0	-1.0	-1.0	-1.0	-1.0	-1.0	0.0	marker	peace	Peace	30	0418
-68954.715	-54931.545	-105097.00499999999	-18626.04	0.0	0.0	0.0	0.0	0.0	0.0	0.0	0.0	0.0	0.0	0.0	0.0	0.0	0.0	146.0	0.0	0.03564444	-0.00708006	1.01342514	2.8383599999999998	0.8698199999999999	-0.54936	3314868.0	1776545020.344998	0.0	1.0	-1.0	-1.0	-1.0	-1.0	-1.0	-1.0	-1.0	-1.0	0.0	marker	peace	Peace	30	0418
-68950.26	-54940.68	-105092.595	-18641.385	0.0	0.0	0.0	0.0	0.0	0.0	0.0	0.0	0.0	0.0	0.0	0.0	0.0	0.0	146.0	0.0	0.03564444	-0.00708006	1.01342514	2.8383599999999998	0.8698199999999999	-0.54936	3314869.0	1776545020.345019	0.0	1.0	-1.0	-1.0	-1.0	-1.0	-1.0	-1.0	-1.0	-1.0	0.0	marker	peace	Peace	30	0418
-69014.655	-54950.805	-105138.36	-18705.015	0.0	0.0	0.0	0.0	0.0	0.0	0.0	0.0	0.0	0.0	0.0	0.0	0.0	0.0	146.0	0.0	0.03625479	-0.00830076	1.01293686	3.29616	0.9308599999999999	-0.39676	3314870.0	1776545020.348225	0.0	1.0	-1.0	-1.0	-1.0	-1.0	-1.0	-1.0	-1.0	-1.0	0.0	marker	peace	Peace	30	0418
-69057.405	-54942.615	-105144.435	-18715.995	0.0	0.0	0.0	0.0	0.0	0.0	0.0	0.0	0.0	0.0	0.0	0.0	0.0	0.0	146.0	0.0	0.03625479	-0.00830076	1.01293686	3.29616	0.9308599999999999	-0.39676	3314871.0	1776545020.348249	0.0	1.0	-1.0	-1.0	-1.0	-1.0	-1.0	-1.0	-1.0	-1.0	0.0	marker	peace	Peace	30	0418
-69004.08	-54941.715	-105085.89	-18668.204999999998	0.0	0.0	0.0	0.0	0.0	0.0	0.0	0.0	0.0	0.0	0.0	0.0	0.0	0.0	146.0	0.0	0.03625479	-0.00830076	1.01293686	3.29616	0.9308599999999999	-0.39676	3314872.0	1776545020.356118	0.0	1.0	-1.0	-1.0	-1.0	-1.0	-1.0	-1.0	-1.0	-1.0	0.0	marker	peace	Peace	30	0418
-68956.515	-54944.189999999995	-105061.36499999999	-18625.545	0.0	0.0	0.0	0.0	0.0	0.0	0.0	0.0	0.0	0.0	0.0	0.0	0.0	0.0	146.0	0.0	0.03625479	-0.00830076	1.01293686	3.29616	0.9308599999999999	-0.39676	3314873.0	1776545020.356144	0.0	1.0	-1.0	-1.0	-1.0	-1.0	-1.0	-1.0	-1.0	-1.0	0.0	marker	peace	Peace	30	0418
-69022.485	-54945.314999999995	-105130.98	-18694.844999999998	0.0	0.0	0.0	0.0	0.0	0.0	0.0	0.0	0.0	0.0	0.0	0.0	0.0	0.0	146.0	0.0	0.03625479	-0.00830076	1.01293686	3.29616	0.9308599999999999	-0.39676	3314874.0	1776545020.356169	0.0	1.0	-1.0	-1.0	-1.0	-1.0	-1.0	-1.0	-1.0	-1.0	0.0	marker	peace	Peace	30	0418
-69041.25	-54948.24	-105156.22499999999	-18722.204999999998	0.0	0.0	0.0	0.0	0.0	0.0	0.0	0.0	0.0	0.0	0.0	0.0	0.0	0.0	146.0	0.0	0.03625479	-0.00830076	1.01293686	3.29616	0.9308599999999999	-0.39676	3314875.0	1776545020.356183	0.0	1.0	-1.0	-1.0	-1.0	-1.0	-1.0	-1.0	-1.0	-1.0	0.0	marker	peace	Peace	30	0418
-69000.255	-54956.159999999996	-105119.01	-18693.225	0.0	0.0	0.0	0.0	0.0	0.0	0.0	0.0	0.0	0.0	0.0	0.0	0.0	0.0	146.0	0.0	0.03625479	-0.00830076	1.01293686	3.29616	0.9308599999999999	-0.39676	3314876.0	1776545020.359647	0.0	1.0	-1.0	-1.0	-1.0	-1.0	-1.0	-1.0	-1.0	-1.0	0.0	marker	peace	Peace	30	0418
-68984.775	-54964.395	-105130.215	-18673.695	0.0	0.0	0.0	0.0	0.0	0.0	0.0	0.0	0.0	0.0	0.0	0.0	0.0	0.0	146.0	0.0	0.03625479	-0.00830076	1.01293686	3.29616	0.9308599999999999	-0.39676	3314877.0	1776545020.359672	0.0	1.0	-1.0	-1.0	-1.0	-1.0	-1.0	-1.0	-1.0	-1.0	0.0	marker	peace	Peace	30	0418
-68980.095	-54966.329999999994	-105129.54	-18679.454999999998	0.0	0.0	0.0	0.0	0.0	0.0	0.0	0.0	0.0	0.0	0.0	0.0	0.0	0.0	146.0	0.0	0.03625479	-0.00830076	1.01293686	3.29616	0.9308599999999999	-0.39676	3314878.0	1776545020.363687	0.0	1.0	-1.0	-1.0	-1.0	-1.0	-1.0	-1.0	-1.0	-1.0	0.0	marker	peace	Peace	30	0418
-68941.8	-54963.9	-105056.28	-18636.255	0.0	0.0	0.0	0.0	0.0	0.0	0.0	0.0	0.0	0.0	0.0	0.0	0.0	0.0	146.0	0.0	0.03625479	-0.00830076	1.01293686	3.29616	0.9308599999999999	-0.39676	3314879.0	1776545020.363723	0.0	1.0	-1.0	-1.0	-1.0	-1.0	-1.0	-1.0	-1.0	-1.0	0.0	marker	peace	Peace	30	0418
-68963.08499999999	-54965.025	-105088.185	-18652.68	0.0	0.0	0.0	0.0	0.0	0.0	0.0	0.0	0.0	0.0	0.0	0.0	0.0	0.0	146.0	0.0	0.0341796	-0.0048828	1.01879622	3.69292	0.39676	-0.41202	3314880.0	1776545020.367735	0.0	1.0	-1.0	-1.0	-1.0	-1.0	-1.0	-1.0	-1.0	-1.0	0.0	marker	peace	Peace	30	0418
-69008.94	-54966.645	-105138.315	-18692.91	0.0	0.0	0.0	0.0	0.0	0.0	0.0	0.0	0.0	0.0	0.0	0.0	0.0	0.0	146.0	0.0	0.0341796	-0.0048828	1.01879622	3.69292	0.39676	-0.41202	3314881.0	1776545020.367754	0.0	1.0	-1.0	-1.0	-1.0	-1.0	-1.0	-1.0	-1.0	-1.0	0.0	marker	peace	Peace	30	0418
-68981.985	-54954.225	-105127.92	-18676.305	0.0	0.0	0.0	0.0	0.0	0.0	0.0	0.0	0.0	0.0	0.0	0.0	0.0	0.0	146.0	0.0	0.0341796	-0.0048828	1.01879622	3.69292	0.39676	-0.41202	3314882.0	1776545020.371636	0.0	1.0	-1.0	-1.0	-1.0	-1.0	-1.0	-1.0	-1.0	-1.0	0.0	marker	peace	Peace	30	0418
-68959.98	-54948.375	-105102.855	-18663.93	0.0	0.0	0.0	0.0	0.0	0.0	0.0	0.0	0.0	0.0	0.0	0.0	0.0	0.0	146.0	0.0	0.0341796	-0.0048828	1.01879622	3.69292	0.39676	-0.41202	3314883.0	1776545020.371668	0.0	1.0	-1.0	-1.0	-1.0	-1.0	-1.0	-1.0	-1.0	-1.0	0.0	marker	peace	Peace	30	0418
-69013.035	-54951.479999999996	-105119.73	-18674.64	0.0	0.0	0.0	0.0	0.0	0.0	0.0	0.0	0.0	0.0	0.0	0.0	0.0	0.0	146.0	0.0	0.0341796	-0.0048828	1.01879622	3.69292	0.39676	-0.41202	3314884.0	1776545020.375513	0.0	1.0	-1.0	-1.0	-1.0	-1.0	-1.0	-1.0	-1.0	-1.0	0.0	marker	peace	Peace	30	0418
-69021.98999999999	-54947.61	-105120.54	-18683.235	0.0	0.0	0.0	0.0	0.0	0.0	0.0	0.0	0.0	0.0	0.0	0.0	0.0	0.0	146.13793103448276	0.0	0.0341796	-0.0048828	1.01879622	3.69292	0.39676	-0.41202	3314885.0	1776545020.375533	0.0	1.0	-1.0	-1.0	-1.0	-1.0	-1.0	-1.0	-1.0	-1.0	0.0	marker	peace	Peace	30	0418
-68997.105	-54946.079999999994	-105085.39499999999	-18646.92	0.0	0.0	0.0	0.0	0.0	0.0	0.0	0.0	0.0	0.0	0.0	0.0	0.0	0.0	146.13793103448276	0.0	0.0341796	-0.0048828	1.01879622	3.69292	0.39676	-0.41202	3314886.0	1776545020.383296	0.0	1.0	-1.0	-1.0	-1.0	-1.0	-1.0	-1.0	-1.0	-1.0	0.0	marker	peace	Peace	30	0418
-68984.86499999999	-54953.909999999996	-105086.655	-18650.565	0.0	0.0	0.0	0.0	0.0	0.0	0.0	0.0	0.0	0.0	0.0	0.0	0.0	0.0	146.13793103448276	0.0	0.0341796	-0.0048828	1.01879622	3.69292	0.39676	-0.41202	3314887.0	1776545020.383326	0.0	1.0	-1.0	-1.0	-1.0	-1.0	-1.0	-1.0	-1.0	-1.0	0.0	marker	peace	Peace	30	0418
-68965.515	-54956.79	-105106.59	-18674.954999999998	0.0	0.0	0.0	0.0	0.0	0.0	0.0	0.0	0.0	0.0	0.0	0.0	0.0	0.0	146.13793103448276	0.0	0.0341796	-0.0048828	1.01879622	3.69292	0.39676	-0.41202	3314888.0	1776545020.384067	0.0	1.0	-1.0	-1.0	-1.0	-1.0	-1.0	-1.0	-1.0	-1.0	0.0	marker	peace	Peace	30	0418
-68980.77	-54951.165	-105123.69	-18697.95	0.0	0.0	0.0	0.0	0.0	0.0	0.0	0.0	0.0	0.0	0.0	0.0	0.0	0.0	146.13793103448276	0.0	0.0341796	-0.0048828	1.01879622	3.69292	0.39676	-0.41202	3314889.0	1776545020.384116	0.0	1.0	-1.0	-1.0	-1.0	-1.0	-1.0	-1.0	-1.0	-1.0	0.0	marker	peace	Peace	30	0418
-68956.33499999999	-54950.4	-105076.62	-18645.48	0.0	0.0	0.0	0.0	0.0	0.0	0.0	0.0	0.0	0.0	0.0	0.0	0.0	0.0	146.13793103448276	0.0	0.033630285	0.000793455	1.022885565	2.63998	0.03052	-0.03052	3314890.0	1776545020.387933	0.0	1.0	-1.0	-1.0	-1.0	-1.0	-1.0	-1.0	-1.0	-1.0	0.0	marker	peace	Peace	30	0418
-69064.73999999999	-54958.905	-105171.705	-18736.605	0.0	0.0	0.0	0.0	0.0	0.0	0.0	0.0	0.0	0.0	0.0	0.0	0.0	0.0	146.13793103448276	0.0	0.033630285	0.000793455	1.022885565	2.63998	0.03052	-0.03052	3314891.0	1776545020.38796	0.0	1.0	-1.0	-1.0	-1.0	-1.0	-1.0	-1.0	-1.0	-1.0	0.0	marker	peace	Peace	30	0418
-69088.635	-54965.115	-105199.37999999999	-18753.524999999998	0.0	0.0	0.0	0.0	0.0	0.0	0.0	0.0	0.0	0.0	0.0	0.0	0.0	0.0	146.13793103448276	0.0	0.033630285	0.000793455	1.022885565	2.63998	0.03052	-0.03052	3314892.0	1776545020.391728	0.0	1.0	-1.0	-1.0	-1.0	-1.0	-1.0	-1.0	-1.0	-1.0	0.0	marker	peace	Peace	30	0418
-69054.12	-54968.49	-105164.37	-18721.53	0.0	0.0	0.0	0.0	0.0	0.0	0.0	0.0	0.0	0.0	0.0	0.0	0.0	0.0	146.13793103448276	0.0	0.033630285	0.000793455	1.022885565	2.63998	0.03052	-0.03052	3314893.0	1776545020.391751	0.0	1.0	-1.0	-1.0	-1.0	-1.0	-1.0	-1.0	-1.0	-1.0	0.0	marker	peace	Peace	30	0418
-69034.635	-54966.329999999994	-105123.735	-18681.84	0.0	0.0	0.0	0.0	0.0	0.0	0.0	0.0	0.0	0.0	0.0	0.0	0.0	0.0	146.13793103448276	0.0	0.033630285	0.000793455	1.022885565	2.63998	0.03052	-0.03052	3314894.0	1776545020.395861	0.0	1.0	-1.0	-1.0	-1.0	-1.0	-1.0	-1.0	-1.0	-1.0	0.0	marker	peace	Peace	30	0418
-69042.285	-54965.34	-105093.405	-18652.23	0.0	0.0	0.0	0.0	0.0	0.0	0.0	0.0	0.0	0.0	0.0	0.0	0.0	0.0	146.13793103448276	0.0	0.033630285	0.000793455	1.022885565	2.63998	0.03052	-0.03052	3314895.0	1776545020.395877	0.0	1.0	-1.0	-1.0	-1.0	-1.0	-1.0	-1.0	-1.0	-1.0	0.0	marker	peace	Peace	30	0418
-69012.27	-54963.314999999995	-105113.745	-18667.89	0.0	0.0	0.0	0.0	0.0	0.0	0.0	0.0	0.0	0.0	0.0	0.0	0.0	0.0	146.13793103448276	0.0	0.033630285	0.000793455	1.022885565	2.63998	0.03052	-0.03052	3314896.0	1776545020.399796	0.0	1.0	-1.0	-1.0	-1.0	-1.0	-1.0	-1.0	-1.0	-1.0	0.0	marker	peace	Peace	30	0418
-68918.265	-54948.869999999995	-105067.8	-18624.015	0.0	0.0	0.0	0.0	0.0	0.0	0.0	0.0	0.0	0.0	0.0	0.0	0.0	0.0	146.13793103448276	0.0	0.033630285	0.000793455	1.022885565	2.63998	0.03052	-0.03052	3314897.0	1776545020.399819	0.0	1.0	-1.0	-1.0	-1.0	-1.0	-1.0	-1.0	-1.0	-1.0	0.0	marker	peace	Peace	30	0418
-68979.78	-54937.575	-105123.51	-18688.005	0.0	0.0	0.0	0.0	0.0	0.0	0.0	0.0	0.0	0.0	0.0	0.0	0.0	0.0	146.13793103448276	0.0	0.033630285	0.000793455	1.022885565	2.63998	0.03052	-0.03052	3314898.0	1776545020.403817	0.0	1.0	-1.0	-1.0	-1.0	-1.0	-1.0	-1.0	-1.0	-1.0	0.0	marker	peace	Peace	30	0418
-68977.305	-54925.92	-105127.29	-18688.77	0.0	0.0	0.0	0.0	0.0	0.0	0.0	0.0	0.0	0.0	0.0	0.0	0.0	0.0	146.13793103448276	0.0	0.033630285	0.000793455	1.022885565	2.63998	0.03052	-0.03052	3314899.0	1776545020.403855	0.0	1.0	-1.0	-1.0	-1.0	-1.0	-1.0	-1.0	-1.0	-1.0	0.0	marker	peace	Peace	30	0418
-68981.04	-54921.869999999995	-105110.775	-18678.329999999998	0.0	0.0	0.0	0.0	0.0	0.0	0.0	0.0	0.0	0.0	0.0	0.0	0.0	0.0	146.13793103448276	0.0	0.03527823	0.001647945	1.019223465	1.84646	0.27468	-0.12208	3314900.0	1776545020.408989	0.0	1.0	-1.0	-1.0	-1.0	-1.0	-1.0	-1.0	-1.0	-1.0	0.0	marker	peace	Peace	30	0418
-69014.79	-54926.369999999995	-105116.12999999999	-18685.395	0.0	0.0	0.0	0.0	0.0	0.0	0.0	0.0	0.0	0.0	0.0	0.0	0.0	0.0	146.13793103448276	0.0	0.03527823	0.001647945	1.019223465	1.84646	0.27468	-0.12208	3314901.0	1776545020.409005	0.0	1.0	-1.0	-1.0	-1.0	-1.0	-1.0	-1.0	-1.0	-1.0	0.0	marker	peace	Peace	30	0418
-68931.675	-54927.63	-105025.23	-18597.78	0.0	0.0	0.0	0.0	0.0	0.0	0.0	0.0	0.0	0.0	0.0	0.0	0.0	0.0	146.13793103448276	0.0	0.03527823	0.001647945	1.019223465	1.84646	0.27468	-0.12208	3314902.0	1776545020.41263	0.0	1.0	-1.0	-1.0	-1.0	-1.0	-1.0	-1.0	-1.0	-1.0	0.0	marker	peace	Peace	30	0418
-68974.11	-54934.604999999996	-105076.305	-18639.09	0.0	0.0	0.0	0.0	0.0	0.0	0.0	0.0	0.0	0.0	0.0	0.0	0.0	0.0	146.13793103448276	0.0	0.03527823	0.001647945	1.019223465	1.84646	0.27468	-0.12208	3314903.0	1776545020.412657	0.0	1.0	-1.0	-1.0	-1.0	-1.0	-1.0	-1.0	-1.0	-1.0	0.0	marker	peace	Peace	30	0418
-69061.86	-54940.95	-105156.18	-18709.92	0.0	0.0	0.0	0.0	0.0	0.0	0.0	0.0	0.0	0.0	0.0	0.0	0.0	0.0	146.13793103448276	0.0	0.03527823	0.001647945	1.019223465	1.84646	0.27468	-0.12208	3314904.0	1776545020.415791	0.0	1.0	-1.0	-1.0	-1.0	-1.0	-1.0	-1.0	-1.0	-1.0	0.0	marker	peace	Peace	30	0418
-68985.98999999999	-54929.7	-105092.28	-18651.87	0.0	0.0	0.0	0.0	0.0	0.0	0.0	0.0	0.0	0.0	0.0	0.0	0.0	0.0	146.13793103448276	0.0	0.03527823	0.001647945	1.019223465	1.84646	0.27468	-0.12208	3314905.0	1776545020.415814	0.0	1.0	-1.0	-1.0	-1.0	-1.0	-1.0	-1.0	-1.0	-1.0	0.0	marker	peace	Peace	30	0418
-68891.22	-54915.03	-105031.485	-18589.95	0.0	0.0	0.0	0.0	0.0	0.0	0.0	0.0	0.0	0.0	0.0	0.0	0.0	0.0	146.13793103448276	0.0	0.03527823	0.001647945	1.019223465	1.84646	0.27468	-0.12208	3314906.0	1776545020.423207	0.0	1.0	-1.0	-1.0	-1.0	-1.0	-1.0	-1.0	-1.0	-1.0	0.0	marker	peace	Peace	30	0418
-68953.995	-54906.84	-105090.56999999999	-18655.425	0.0	0.0	0.0	0.0	0.0	0.0	0.0	0.0	0.0	0.0	0.0	0.0	0.0	0.0	146.13793103448276	0.0	0.03527823	0.001647945	1.019223465	1.84646	0.27468	-0.12208	3314907.0	1776545020.423226	0.0	1.0	-1.0	-1.0	-1.0	-1.0	-1.0	-1.0	-1.0	-1.0	0.0	marker	peace	Peace	30	0418
-69066.18	-54913.229999999996	-105169.00499999999	-18737.954999999998	0.0	0.0	0.0	0.0	0.0	0.0	0.0	0.0	0.0	0.0	0.0	0.0	0.0	0.0	146.13793103448276	0.0	0.03527823	0.001647945	1.019223465	1.84646	0.27468	-0.12208	3314908.0	1776545020.423806	0.0	1.0	-1.0	-1.0	-1.0	-1.0	-1.0	-1.0	-1.0	-1.0	0.0	marker	peace	Peace	30	0418
-69040.665	-54925.784999999996	-105112.17	-18684.809999999998	0.0	0.0	0.0	0.0	0.0	0.0	0.0	0.0	0.0	0.0	0.0	0.0	0.0	0.0	146.13793103448276	0.0	0.03527823	0.001647945	1.019223465	1.84646	0.27468	-0.12208	3314909.0	1776545020.423821	0.0	1.0	-1.0	-1.0	-1.0	-1.0	-1.0	-1.0	-1.0	-1.0	0.0	marker	peace	Peace	30	0418
-68996.61	-54940.634999999995	-105083.73	-18648.719999999998	0.0	0.0	0.0	0.0	0.0	0.0	0.0	0.0	0.0	0.0	0.0	0.0	0.0	0.0	146.13793103448276	0.0	0.034606845	-0.00427245	1.01403549	2.33478	0.39676	0.03052	3314910.0	1776545020.429938	0.0	1.0	-1.0	-1.0	-1.0	-1.0	-1.0	-1.0	-1.0	-1.0	0.0	marker	peace	Peace	30	0418
-69047.415	-54959.715	-105172.155	-18725.535	0.0	0.0	0.0	0.0	0.0	0.0	0.0	0.0	0.0	0.0	0.0	0.0	0.0	0.0	146.13793103448276	0.0	0.034606845	-0.00427245	1.01403549	2.33478	0.39676	0.03052	3314911.0	1776545020.429968	0.0	1.0	-1.0	-1.0	-1.0	-1.0	-1.0	-1.0	-1.0	-1.0	0.0	marker	peace	Peace	30	0418
-69034.14	-54968.265	-105172.83	-18719.28	0.0	0.0	0.0	0.0	0.0	0.0	0.0	0.0	0.0	0.0	0.0	0.0	0.0	0.0	146.13793103448276	0.0	0.034606845	-0.00427245	1.01403549	2.33478	0.39676	0.03052	3314912.0	1776545020.433813	0.0	1.0	-1.0	-1.0	-1.0	-1.0	-1.0	-1.0	-1.0	-1.0	0.0	marker	peace	Peace	30	0418
-68910.20999999999	-54971.505	-105024.465	-18592.605	0.0	0.0	0.0	0.0	0.0	0.0	0.0	0.0	0.0	0.0	0.0	0.0	0.0	0.0	146.13793103448276	0.0	0.034606845	-0.00427245	1.01403549	2.33478	0.39676	0.03052	3314913.0	1776545020.433838	0.0	1.0	-1.0	-1.0	-1.0	-1.0	-1.0	-1.0	-1.0	-1.0	0.0	marker	peace	Peace	30	0418
-68937.84	-54978.165	-105071.04	-18641.295	0.0	0.0	0.0	0.0	0.0	0.0	0.0	0.0	0.0	0.0	0.0	0.0	0.0	0.0	146.13793103448276	0.0	0.034606845	-0.00427245	1.01403549	2.33478	0.39676	0.03052	3314914.0	1776545020.435869	0.0	1.0	-1.0	-1.0	-1.0	-1.0	-1.0	-1.0	-1.0	-1.0	0.0	marker	peace	Peace	30	0418
-69123.87	-54979.064999999995	-105233.08499999999	-18792.315	0.0	0.0	0.0	0.0	0.0	0.0	0.0	0.0	0.0	0.0	0.0	0.0	0.0	0.0	146.13793103448276	0.0	0.034606845	-0.00427245	1.01403549	2.33478	0.39676	0.03052	3314915.0	1776545020.435889	0.0	1.0	-1.0	-1.0	-1.0	-1.0	-1.0	-1.0	-1.0	-1.0	0.0	marker	peace	Peace	30	0418
-69055.29	-54961.875	-105174.9	-18742.23	0.0	0.0	0.0	0.0	0.0	0.0	0.0	0.0	0.0	0.0	0.0	0.0	0.0	0.0	146.13793103448276	0.0	0.034606845	-0.00427245	1.01403549	2.33478	0.39676	0.03052	3314916.0	1776545020.439923	0.0	1.0	-1.0	-1.0	-1.0	-1.0	-1.0	-1.0	-1.0	-1.0	0.0	marker	peace	Peace	30	0418
-69013.215	-54962.775	-105137.90999999999	-18702.0	0.0	0.0	0.0	0.0	0.0	0.0	0.0	0.0	0.0	0.0	0.0	0.0	0.0	0.0	146.13793103448276	0.0	0.034606845	-0.00427245	1.01403549	2.33478	0.39676	0.03052	3314917.0	1776545020.43994	0.0	1.0	-1.0	-1.0	-1.0	-1.0	-1.0	-1.0	-1.0	-1.0	0.0	marker	peace	Peace	30	0418
-68995.44	-54972.81	-105117.12	-18669.69	0.0	0.0	0.0	0.0	0.0	0.0	0.0	0.0	0.0	0.0	0.0	0.0	0.0	0.0	146.13793103448276	0.0	0.034606845	-0.00427245	1.01403549	2.33478	0.39676	0.03052	3314918.0	1776545020.444658	0.0	1.0	-1.0	-1.0	-1.0	-1.0	-1.0	-1.0	-1.0	-1.0	0.0	marker	peace	Peace	30	0418
-68935.815	-54967.454999999994	-105041.06999999999	-18601.335	0.0	0.0	0.0	0.0	0.0	0.0	0.0	0.0	0.0	0.0	0.0	0.0	0.0	0.0	146.13793103448276	0.0	0.034606845	-0.00427245	1.01403549	2.33478	0.39676	0.03052	3314919.0	1776545020.444671	0.0	1.0	-1.0	-1.0	-1.0	-1.0	-1.0	-1.0	-1.0	-1.0	0.0	marker	peace	Peace	30	0418
-68980.72499999999	-54961.74	-105064.01999999999	-18651.51	0.0	0.0	0.0	0.0	0.0	0.0	0.0	0.0	0.0	0.0	0.0	0.0	0.0	0.0	146.13793103448276	0.0	0.030822675	-0.00427245	1.017026205	2.71628	0.27468	-0.04578	3314920.0	1776545020.450621	0.0	1.0	-1.0	-1.0	-1.0	-1.0	-1.0	-1.0	-1.0	-1.0	0.0	marker	peace	Peace	30	0418
-69020.415	-54956.07	-105135.03	-18727.695	0.0	0.0	0.0	0.0	0.0	0.0	0.0	0.0	0.0	0.0	0.0	0.0	0.0	0.0	146.13793103448276	0.0	0.030822675	-0.00427245	1.017026205	2.71628	0.27468	-0.04578	3314921.0	1776545020.45064	0.0	1.0	-1.0	-1.0	-1.0	-1.0	-1.0	-1.0	-1.0	-1.0	0.0	marker	peace	Peace	30	0418
-68973.345	-54947.204999999994	-105073.01999999999	-18655.065	0.0	0.0	0.0	0.0	0.0	0.0	0.0	0.0	0.0	0.0	0.0	0.0	0.0	0.0	146.13793103448276	0.0	0.030822675	-0.00427245	1.017026205	2.71628	0.27468	-0.04578	3314922.0	1776545020.45351	0.0	1.0	-1.0	-1.0	-1.0	-1.0	-1.0	-1.0	-1.0	-1.0	0.0	marker	peace	Peace	30	0418
-68961.87	-54935.325	-105046.47	-18598.995	0.0	0.0	0.0	0.0	0.0	0.0	0.0	0.0	0.0	0.0	0.0	0.0	0.0	0.0	146.13793103448276	0.0	0.030822675	-0.00427245	1.017026205	2.71628	0.27468	-0.04578	3314923.0	1776545020.453546	0.0	1.0	-1.0	-1.0	-1.0	-1.0	-1.0	-1.0	-1.0	-1.0	0.0	marker	peace	Peace	30	0418
-69022.89	-54936.405	-105097.545	-18661.14	0.0	0.0	0.0	0.0	0.0	0.0	0.0	0.0	0.0	0.0	0.0	0.0	0.0	0.0	146.13793103448276	0.0	0.030822675	-0.00427245	1.017026205	2.71628	0.27468	-0.04578	3314924.0	1776545020.456592	0.0	1.0	-1.0	-1.0	-1.0	-1.0	-1.0	-1.0	-1.0	-1.0	0.0	marker	peace	Peace	30	0418
-69044.895	-54940.32	-105165.765	-18703.26	0.0	0.0	0.0	0.0	0.0	0.0	0.0	0.0	0.0	0.0	0.0	0.0	0.0	0.0	146.13793103448276	0.0	0.030822675	-0.00427245	1.017026205	2.71628	0.27468	-0.04578	3314925.0	1776545020.456608	0.0	1.0	-1.0	-1.0	-1.0	-1.0	-1.0	-1.0	-1.0	-1.0	0.0	marker	peace	Peace	30	0418
-68921.64	-54942.21	-105050.43	-18574.92	0.0	0.0	0.0	0.0	0.0	0.0	0.0	0.0	0.0	0.0	0.0	0.0	0.0	0.0	146.13793103448276	0.0	0.030822675	-0.00427245	1.017026205	2.71628	0.27468	-0.04578	3314926.0	1776545020.459916	0.0	1.0	-1.0	-1.0	-1.0	-1.0	-1.0	-1.0	-1.0	-1.0	0.0	marker	peace	Peace	30	0418
-68890.455	-54956.564999999995	-104980.14	-18564.93	0.0	0.0	0.0	0.0	0.0	0.0	0.0	0.0	0.0	0.0	0.0	0.0	0.0	0.0	146.13793103448276	0.0	0.030822675	-0.00427245	1.017026205	2.71628	0.27468	-0.04578	3314927.0	1776545020.459928	0.0	1.0	-1.0	-1.0	-1.0	-1.0	-1.0	-1.0	-1.0	-1.0	0.0	marker	peace	Peace	30	0418
-69098.715	-54979.965	-105178.40999999999	-18766.71	0.0	0.0	0.0	0.0	0.0	0.0	0.0	0.0	0.0	0.0	0.0	0.0	0.0	0.0	146.13793103448276	0.0	0.030822675	-0.00427245	1.017026205	2.71628	0.27468	-0.04578	3314928.0	1776545020.463917	0.0	1.0	-1.0	-1.0	-1.0	-1.0	-1.0	-1.0	-1.0	-1.0	0.0	marker	peace	Peace	30	0418
-69024.87	-54981.81	-105133.5	-18695.745	0.0	0.0	0.0	0.0	0.0	0.0	0.0	0.0	0.0	0.0	0.0	0.0	0.0	0.0	146.13793103448276	0.0	0.030822675	-0.00427245	1.017026205	2.71628	0.27468	-0.04578	3314929.0	1776545020.463944	0.0	1.0	-1.0	-1.0	-1.0	-1.0	-1.0	-1.0	-1.0	-1.0	0.0	marker	peace	Peace	30	0418
-68944.905	-54982.53	-105051.78	-18603.045	0.0	0.0	0.0	0.0	0.0	0.0	0.0	0.0	0.0	0.0	0.0	0.0	0.0	0.0	146.13793103448276	0.0	0.032287515	-0.002624505	1.0220310750000001	2.7010199999999998	-0.25942	0.09156	3314930.0	1776545020.467989	0.0	1.0	-1.0	-1.0	-1.0	-1.0	-1.0	-1.0	-1.0	-1.0	0.0	marker	peace	Peace	30	0418
