ch_0	ch_1	ch_2	ch_3	ch_4	ch_5	ch_6	ch_7	ch_8	ch_9	ch_10	ch_11	ch_12	ch_13	ch_14	ch_15	ch_16	ch_17	ch_18	ch_19	ch_20	ch_21	ch_22	ch_23	ch_24	ch_25	ch_26	timestamp	marker	ch_29	ch_30	ch_31	ch_32	ch_33	ch_34	ch_35	ch_36	ch_37	ch_38	MarkerColumn	GestureLabel	CueLabel	SampleNumber	CollectionDate
-66215.655	-51993.494999999995	-97324.33499999999	-17963.145	0.0	0.0	0.0	0.0	0.0	0.0	0.0	0.0	0.0	0.0	0.0	0.0	0.0	0.0	145.79310344827584	0.0	0.01770015	-0.099059805	1.00964097	9.079699999999999	0.7019599999999999	-4.83742	3169608.0	1776544728.837183	3.0	1.0	-1.0	-1.0	-1.0	-1.0	-1.0	-1.0	-1.0	-1.0	0.0	marker	opened-hand	Open	7	0418
-65697.39	-51938.64	-96891.48	-17537.489999999998	0.0	0.0	0.0	0.0	0.0	0.0	0.0	0.0	0.0	0.0	0.0	0.0	0.0	0.0	145.79310344827584	0.0	0.01770015	-0.099059805	1.00964097	9.079699999999999	0.7019599999999999	-4.83742	3169609.0	1776544728.837199	0.0	1.0	-1.0	-1.0	-1.0	-1.0	-1.0	-1.0	-1.0	-1.0	0.0	marker	opened-hand	Open	7	0418
-65638.305	-51901.064999999995	-96602.265	-17230.815	0.0	0.0	0.0	0.0	0.0	0.0	0.0	0.0	0.0	0.0	0.0	0.0	0.0	0.0	145.79310344827584	0.0	-0.00903318	-0.08258035500000001	1.019589675	11.32292	0.0	-5.17314	3169610.0	1776544728.837219	0.0	1.0	-1.0	-1.0	-1.0	-1.0	-1.0	-1.0	-1.0	-1.0	0.0	marker	opened-hand	Open	7	0418
-66275.235	-51936.93	-97265.79	-17822.925	0.0	0.0	0.0	0.0	0.0	0.0	0.0	0.0	0.0	0.0	0.0	0.0	0.0	0.0	145.79310344827584	0.0	-0.00903318	-0.08258035500000001	1.019589675	11.32292	0.0	-5.17314	3169611.0	1776544728.837234	0.0	1.0	-1.0	-1.0	-1.0	-1.0	-1.0	-1.0	-1.0	-1.0	0.0	marker	opened-hand	Open	7	0418
-66677.04	-51955.784999999996	-97669.485	-18270.855	0.0	0.0	0.0	0.0	0.0	0.0	0.0	0.0	0.0	0.0	0.0	0.0	0.0	0.0	145.79310344827584	0.0	-0.00903318	-0.08258035500000001	1.019589675	11.32292	0.0	-5.17314	3169612.0	1776544728.83724	0.0	1.0	-1.0	-1.0	-1.0	-1.0	-1.0	-1.0	-1.0	-1.0	0.0	marker	opened-hand	Open	7	0418
-66416.58	-51927.299999999996	-97497.54	-18200.43	0.0	0.0	0.0	0.0	0.0	0.0	0.0	0.0	0.0	0.0	0.0	0.0	0.0	0.0	145.79310344827584	0.0	-0.00903318	-0.08258035500000001	1.019589675	11.32292	0.0	-5.17314	3169613.0	1776544728.837243	0.0	1.0	-1.0	-1.0	-1.0	-1.0	-1.0	-1.0	-1.0	-1.0	0.0	marker	opened-hand	Open	7	0418
-66200.94	-51928.965	-97341.93	-18081.315	0.0	0.0	0.0	0.0	0.0	0.0	0.0	0.0	0.0	0.0	0.0	0.0	0.0	0.0	145.79310344827584	0.0	-0.00903318	-0.08258035500000001	1.019589675	11.32292	0.0	-5.17314	3169614.0	1776544728.841071	0.0	1.0	-1.0	-1.0	-1.0	-1.0	-1.0	-1.0	-1.0	-1.0	0.0	marker	opened-hand	Open	7	0418
-66175.155	-51930.09	-97210.17	-17892.09	0.0	0.0	0.0	0.0	0.0	0.0	0.0	0.0	0.0	0.0	0.0	0.0	0.0	0.0	145.79310344827584	0.0	-0.00903318	-0.08258035500000001	1.019589675	11.32292	0.0	-5.17314	3169615.0	1776544728.841085	0.0	1.0	-1.0	-1.0	-1.0	-1.0	-1.0	-1.0	-1.0	-1.0	0.0	marker	opened-hand	Open	7	0418
-66126.87	-51917.985	-97147.17	-17800.739999999998	0.0	0.0	0.0	0.0	0.0	0.0	0.0	0.0	0.0	0.0	0.0	0.0	0.0	0.0	145.79310344827584	0.0	-0.00903318	-0.08258035500000001	1.019589675	11.32292	0.0	-5.17314	3169616.0	1776544728.845024	0.0	1.0	-1.0	-1.0	-1.0	-1.0	-1.0	-1.0	-1.0	-1.0	0.0	marker	opened-hand	Open	7	0418
-66285.81	-51911.775	-97274.47499999999	-17953.605	0.0	0.0	0.0	0.0	0.0	0.0	0.0	0.0	0.0	0.0	0.0	0.0	0.0	0.0	145.79310344827584	0.0	-0.00903318	-0.08258035500000001	1.019589675	11.32292	0.0	-5.17314	3169617.0	1776544728.845038	0.0	1.0	-1.0	-1.0	-1.0	-1.0	-1.0	-1.0	-1.0	-1.0	0.0	marker	opened-hand	Open	7	0418
-66301.69499999999	-51884.325	-97193.205	-17899.739999999998	0.0	0.0	0.0	0.0	0.0	0.0	0.0	0.0	0.0	0.0	0.0	0.0	0.0	0.0	145.79310344827584	0.0	-0.00903318	-0.08258035500000001	1.019589675	11.32292	0.0	-5.17314	3169618.0	1776544728.849065	0.0	1.0	-1.0	-1.0	-1.0	-1.0	-1.0	-1.0	-1.0	-1.0	0.0	marker	opened-hand	Open	7	0418
-66100.14	-51869.655	-97056.18	-17709.614999999998	0.0	0.0	0.0	0.0	0.0	0.0	0.0	0.0	0.0	0.0	0.0	0.0	0.0	0.0	145.79310344827584	0.0	-0.00903318	-0.08258035500000001	1.019589675	11.32292	0.0	-5.17314	3169619.0	1776544728.84908	0.0	1.0	-1.0	-1.0	-1.0	-1.0	-1.0	-1.0	-1.0	-1.0	0.0	marker	opened-hand	Open	7	0418
-65776.995	-51855.39	-96714.58499999999	-17426.565	0.0	0.0	0.0	0.0	0.0	0.0	0.0	0.0	0.0	0.0	0.0	0.0	0.0	0.0	145.79310344827584	0.0	-0.02612298	-0.027282645	1.02087141	4.01338	-0.27468	2.3042599999999998	3169620.0	1776544728.856277	0.0	1.0	-1.0	-1.0	-1.0	-1.0	-1.0	-1.0	-1.0	-1.0	0.0	marker	opened-hand	Open	7	0418
-65734.2	-51858.45	-96745.36499999999	-17471.79	0.0	0.0	0.0	0.0	0.0	0.0	0.0	0.0	0.0	0.0	0.0	0.0	0.0	0.0	145.79310344827584	0.0	-0.02612298	-0.027282645	1.02087141	4.01338	-0.27468	2.3042599999999998	3169621.0	1776544728.856291	0.0	1.0	-1.0	-1.0	-1.0	-1.0	-1.0	-1.0	-1.0	-1.0	0.0	marker	opened-hand	Open	7	0418
-66055.36499999999	-51898.994999999995	-97224.03	-17827.38	0.0	0.0	0.0	0.0	0.0	0.0	0.0	0.0	0.0	0.0	0.0	0.0	0.0	0.0	145.79310344827584	0.0	-0.02612298	-0.027282645	1.02087141	4.01338	-0.27468	2.3042599999999998	3169622.0	1776544728.861088	0.0	1.0	-1.0	-1.0	-1.0	-1.0	-1.0	-1.0	-1.0	-1.0	0.0	marker	opened-hand	Open	7	0418
-66341.745	-51925.14	-97429.5	-18045.045	0.0	0.0	0.0	0.0	0.0	0.0	0.0	0.0	0.0	0.0	0.0	0.0	0.0	0.0	145.79310344827584	0.0	-0.02612298	-0.027282645	1.02087141	4.01338	-0.27468	2.3042599999999998	3169623.0	1776544728.861103	0.0	1.0	-1.0	-1.0	-1.0	-1.0	-1.0	-1.0	-1.0	-1.0	0.0	marker	opened-hand	Open	7	0418
-66360.69	-51912.72	-97279.155	-17923.14	0.0	0.0	0.0	0.0	0.0	0.0	0.0	0.0	0.0	0.0	0.0	0.0	0.0	0.0	145.79310344827584	0.0	-0.02612298	-0.027282645	1.02087141	4.01338	-0.27468	2.3042599999999998	3169624.0	1776544728.86112	0.0	1.0	-1.0	-1.0	-1.0	-1.0	-1.0	-1.0	-1.0	-1.0	0.0	marker	opened-hand	Open	7	0418
-66382.155	-51902.415	-97256.745	-17911.125	0.0	0.0	0.0	0.0	0.0	0.0	0.0	0.0	0.0	0.0	0.0	0.0	0.0	0.0	145.79310344827584	0.0	-0.02612298	-0.027282645	1.02087141	4.01338	-0.27468	2.3042599999999998	3169625.0	1776544728.861135	0.0	1.0	-1.0	-1.0	-1.0	-1.0	-1.0	-1.0	-1.0	-1.0	0.0	marker	opened-hand	Open	7	0418
-66232.44	-51882.93	-97171.065	-17862.344999999998	0.0	0.0	0.0	0.0	0.0	0.0	0.0	0.0	0.0	0.0	0.0	0.0	0.0	0.0	145.79310344827584	0.0	-0.02612298	-0.027282645	1.02087141	4.01338	-0.27468	2.3042599999999998	3169626.0	1776544728.865235	0.0	1.0	-1.0	-1.0	-1.0	-1.0	-1.0	-1.0	-1.0	-1.0	0.0	marker	opened-hand	Open	7	0418
-66168.94499999999	-51875.189999999995	-97219.575	-17900.864999999998	0.0	0.0	0.0	0.0	0.0	0.0	0.0	0.0	0.0	0.0	0.0	0.0	0.0	0.0	145.79310344827584	0.0	-0.02612298	-0.027282645	1.02087141	4.01338	-0.27468	2.3042599999999998	3169627.0	1776544728.865251	0.0	1.0	-1.0	-1.0	-1.0	-1.0	-1.0	-1.0	-1.0	-1.0	0.0	marker	opened-hand	Open	7	0418
-66079.89	-51868.215	-97270.65	-17885.204999999998	0.0	0.0	0.0	0.0	0.0	0.0	0.0	0.0	0.0	0.0	0.0	0.0	0.0	0.0	145.79310344827584	0.0	-0.02612298	-0.027282645	1.02087141	4.01338	-0.27468	2.3042599999999998	3169628.0	1776544728.869128	0.0	1.0	-1.0	-1.0	-1.0	-1.0	-1.0	-1.0	-1.0	-1.0	0.0	marker	opened-hand	Open	7	0418
-66025.34999999999	-51867.18	-97187.94	-17825.715	0.0	0.0	0.0	0.0	0.0	0.0	0.0	0.0	0.0	0.0	0.0	0.0	0.0	0.0	145.79310344827584	0.0	-0.02612298	-0.027282645	1.02087141	4.01338	-0.27468	2.3042599999999998	3169629.0	1776544728.869143	0.0	1.0	-1.0	-1.0	-1.0	-1.0	-1.0	-1.0	-1.0	-1.0	0.0	marker	opened-hand	Open	7	0418
-66232.125	-51888.42	-97276.815	-17919.315	0.0	0.0	0.0	0.0	0.0	0.0	0.0	0.0	0.0	0.0	0.0	0.0	0.0	0.0	145.79310344827584	0.0	0.0061645350000000005	-0.017517045000000002	1.0089085500000001	-0.6714399999999999	0.35097999999999996	1.1444999999999999	3169630.0	1776544728.873565	0.0	1.0	-1.0	-1.0	-1.0	-1.0	-1.0	-1.0	-1.0	-1.0	0.0	marker	opened-hand	Open	7	0418
-65993.895	-51880.095	-96989.265	-17604.18	0.0	0.0	0.0	0.0	0.0	0.0	0.0	0.0	0.0	0.0	0.0	0.0	0.0	0.0	145.79310344827584	0.0	0.0061645350000000005	-0.017517045000000002	1.0089085500000001	-0.6714399999999999	0.35097999999999996	1.1444999999999999	3169631.0	1776544728.87358	0.0	1.0	-1.0	-1.0	-1.0	-1.0	-1.0	-1.0	-1.0	-1.0	0.0	marker	opened-hand	Open	7	0418
-65734.02	-51856.2	-96669.855	-17316.135	0.0	0.0	0.0	0.0	0.0	0.0	0.0	0.0	0.0	0.0	0.0	0.0	0.0	0.0	145.79310344827584	0.0	0.0061645350000000005	-0.017517045000000002	1.0089085500000001	-0.6714399999999999	0.35097999999999996	1.1444999999999999	3169632.0	1776544728.877475	0.0	1.0	-1.0	-1.0	-1.0	-1.0	-1.0	-1.0	-1.0	-1.0	0.0	marker	opened-hand	Open	7	0418
-66115.485	-51881.4	-97189.155	-17814.69	0.0	0.0	0.0	0.0	0.0	0.0	0.0	0.0	0.0	0.0	0.0	0.0	0.0	0.0	145.79310344827584	0.0	0.0061645350000000005	-0.017517045000000002	1.0089085500000001	-0.6714399999999999	0.35097999999999996	1.1444999999999999	3169633.0	1776544728.87749	0.0	1.0	-1.0	-1.0	-1.0	-1.0	-1.0	-1.0	-1.0	-1.0	0.0	marker	opened-hand	Open	7	0418
-66001.36499999999	-51862.365	-97104.87	-17761.14	0.0	0.0	0.0	0.0	0.0	0.0	0.0	0.0	0.0	0.0	0.0	0.0	0.0	0.0	145.79310344827584	0.0	0.0061645350000000005	-0.017517045000000002	1.0089085500000001	-0.6714399999999999	0.35097999999999996	1.1444999999999999	3169634.0	1776544728.883287	0.0	1.0	-1.0	-1.0	-1.0	-1.0	-1.0	-1.0	-1.0	-1.0	0.0	marker	opened-hand	Open	7	0418
-66108.42	-51861.869999999995	-97055.055	-17701.515	0.0	0.0	0.0	0.0	0.0	0.0	0.0	0.0	0.0	0.0	0.0	0.0	0.0	0.0	145.79310344827584	0.0	0.0061645350000000005	-0.017517045000000002	1.0089085500000001	-0.6714399999999999	0.35097999999999996	1.1444999999999999	3169635.0	1776544728.883302	0.0	1.0	-1.0	-1.0	-1.0	-1.0	-1.0	-1.0	-1.0	-1.0	0.0	marker	opened-hand	Open	7	0418
-66369.69	-51918.39	-97422.3	-18098.145	0.0	0.0	0.0	0.0	0.0	0.0	0.0	0.0	0.0	0.0	0.0	0.0	0.0	0.0	145.79310344827584	0.0	0.0061645350000000005	-0.017517045000000002	1.0089085500000001	-0.6714399999999999	0.35097999999999996	1.1444999999999999	3169636.0	1776544728.892915	0.0	1.0	-1.0	-1.0	-1.0	-1.0	-1.0	-1.0	-1.0	-1.0	0.0	marker	opened-hand	Open	7	0418
-66237.39	-51930.0	-97306.245	-17997.12	0.0	0.0	0.0	0.0	0.0	0.0	0.0	0.0	0.0	0.0	0.0	0.0	0.0	0.0	145.79310344827584	0.0	0.0061645350000000005	-0.017517045000000002	1.0089085500000001	-0.6714399999999999	0.35097999999999996	1.1444999999999999	3169637.0	1776544728.892929	0.0	1.0	-1.0	-1.0	-1.0	-1.0	-1.0	-1.0	-1.0	-1.0	0.0	marker	opened-hand	Open	7	0418
-66312.855	-51946.155	-97302.87	-17915.94	0.0	0.0	0.0	0.0	0.0	0.0	0.0	0.0	0.0	0.0	0.0	0.0	0.0	0.0	145.79310344827584	0.0	0.0061645350000000005	-0.017517045000000002	1.0089085500000001	-0.6714399999999999	0.35097999999999996	1.1444999999999999	3169638.0	1776544728.893208	0.0	1.0	-1.0	-1.0	-1.0	-1.0	-1.0	-1.0	-1.0	-1.0	0.0	marker	opened-hand	Open	7	0418
-66357.72	-51960.78	-97380.9	-17993.07	0.0	0.0	0.0	0.0	0.0	0.0	0.0	0.0	0.0	0.0	0.0	0.0	0.0	0.0	145.79310344827584	0.0	0.0061645350000000005	-0.017517045000000002	1.0089085500000001	-0.6714399999999999	0.35097999999999996	1.1444999999999999	3169639.0	1776544728.893212	0.0	1.0	-1.0	-1.0	-1.0	-1.0	-1.0	-1.0	-1.0	-1.0	0.0	marker	opened-hand	Open	7	0418
-66145.905	-51965.685	-97150.31999999999	-17802.315	0.0	0.0	0.0	0.0	0.0	0.0	0.0	0.0	0.0	0.0	0.0	0.0	0.0	0.0	145.79310344827584	0.0	0.029357835	-0.052429065000000004	1.01134995	2.4110799999999997	1.3734	-0.24416	3169640.0	1776544728.893217	0.0	1.0	-1.0	-1.0	-1.0	-1.0	-1.0	-1.0	-1.0	-1.0	0.0	marker	opened-hand	Open	7	0418
-65990.11499999999	-51975.09	-97020.315	-17691.704999999998	0.0	0.0	0.0	0.0	0.0	0.0	0.0	0.0	0.0	0.0	0.0	0.0	0.0	0.0	145.79310344827584	0.0	0.029357835	-0.052429065000000004	1.01134995	2.4110799999999997	1.3734	-0.24416	3169641.0	1776544728.893221	0.0	1.0	-1.0	-1.0	-1.0	-1.0	-1.0	-1.0	-1.0	-1.0	0.0	marker	opened-hand	Open	7	0418
-65961.54	-51986.564999999995	-96942.95999999999	-17575.515	0.0	0.0	0.0	0.0	0.0	0.0	0.0	0.0	0.0	0.0	0.0	0.0	0.0	0.0	145.79310344827584	0.0	0.029357835	-0.052429065000000004	1.01134995	2.4110799999999997	1.3734	-0.24416	3169642.0	1776544728.897158	0.0	1.0	-1.0	-1.0	-1.0	-1.0	-1.0	-1.0	-1.0	-1.0	0.0	marker	opened-hand	Open	7	0418
-66201.345	-51998.534999999996	-97230.23999999999	-17878.815	0.0	0.0	0.0	0.0	0.0	0.0	0.0	0.0	0.0	0.0	0.0	0.0	0.0	0.0	145.79310344827584	0.0	0.029357835	-0.052429065000000004	1.01134995	2.4110799999999997	1.3734	-0.24416	3169643.0	1776544728.897172	0.0	1.0	-1.0	-1.0	-1.0	-1.0	-1.0	-1.0	-1.0	-1.0	0.0	marker	opened-hand	Open	7	0418
-66162.19499999999	-51979.049999999996	-97205.89499999999	-17850.059999999998	0.0	0.0	0.0	0.0	0.0	0.0	0.0	0.0	0.0	0.0	0.0	0.0	0.0	0.0	145.79310344827584	0.0	0.029357835	-0.052429065000000004	1.01134995	2.4110799999999997	1.3734	-0.24416	3169644.0	1776544728.901225	0.0	1.0	-1.0	-1.0	-1.0	-1.0	-1.0	-1.0	-1.0	-1.0	0.0	marker	opened-hand	Open	7	0418
-66195.0	-51966.63	-97205.89499999999	-17838.135	0.0	0.0	0.0	0.0	0.0	0.0	0.0	0.0	0.0	0.0	0.0	0.0	0.0	0.0	145.79310344827584	0.0	0.029357835	-0.052429065000000004	1.01134995	2.4110799999999997	1.3734	-0.24416	3169645.0	1776544728.901239	0.0	1.0	-1.0	-1.0	-1.0	-1.0	-1.0	-1.0	-1.0	-1.0	0.0	marker	opened-hand	Open	7	0418
-66049.65	-51954.165	-97020.495	-17704.844999999998	0.0	0.0	0.0	0.0	0.0	0.0	0.0	0.0	0.0	0.0	0.0	0.0	0.0	0.0	145.79310344827584	0.0	0.029357835	-0.052429065000000004	1.01134995	2.4110799999999997	1.3734	-0.24416	3169646.0	1776544728.908542	0.0	1.0	-1.0	-1.0	-1.0	-1.0	-1.0	-1.0	-1.0	-1.0	0.0	marker	opened-hand	Open	7	0418
-66253.77	-51971.04	-97195.5	-17801.505	0.0	0.0	0.0	0.0	0.0	0.0	0.0	0.0	0.0	0.0	0.0	0.0	0.0	0.0	145.79310344827584	0.0	0.029357835	-0.052429065000000004	1.01134995	2.4110799999999997	1.3734	-0.24416	3169647.0	1776544728.908551	0.0	1.0	-1.0	-1.0	-1.0	-1.0	-1.0	-1.0	-1.0	-1.0	0.0	marker	opened-hand	Open	7	0418
-66252.19499999999	-51974.685	-97277.44499999999	-17914.545	0.0	0.0	0.0	0.0	0.0	0.0	0.0	0.0	0.0	0.0	0.0	0.0	0.0	0.0	145.79310344827584	0.0	0.029357835	-0.052429065000000004	1.01134995	2.4110799999999997	1.3734	-0.24416	3169648.0	1776544728.911437	0.0	1.0	-1.0	-1.0	-1.0	-1.0	-1.0	-1.0	-1.0	-1.0	0.0	marker	opened-hand	Open	7	0418
-65851.875	-51934.634999999995	-96803.955	-17472.69	0.0	0.0	0.0	0.0	0.0	0.0	0.0	0.0	0.0	0.0	0.0	0.0	0.0	0.0	145.79310344827584	0.0	0.029357835	-0.052429065000000004	1.01134995	2.4110799999999997	1.3734	-0.24416	3169649.0	1776544728.911451	0.0	1.0	-1.0	-1.0	-1.0	-1.0	-1.0	-1.0	-1.0	-1.0	0.0	marker	opened-hand	Open	7	0418
-65785.545	-51920.28	-96824.51999999999	-17508.42	0.0	0.0	0.0	0.0	0.0	0.0	0.0	0.0	0.0	0.0	0.0	0.0	0.0	0.0	145.79310344827584	0.0	0.01000974	-0.072814755	1.020077955	6.39394	0.41202	-1.17502	3169650.0	1776544728.914594	0.0	1.0	-1.0	-1.0	-1.0	-1.0	-1.0	-1.0	-1.0	-1.0	0.0	marker	opened-hand	Open	7	0418
-66278.34	-51938.1	-97307.45999999999	-17923.995	0.0	0.0	0.0	0.0	0.0	0.0	0.0	0.0	0.0	0.0	0.0	0.0	0.0	0.0	145.79310344827584	0.0	0.01000974	-0.072814755	1.020077955	6.39394	0.41202	-1.17502	3169651.0	1776544728.914608	0.0	1.0	-1.0	-1.0	-1.0	-1.0	-1.0	-1.0	-1.0	-1.0	0.0	marker	opened-hand	Open	7	0418
-66338.955	-51939.18	-97339.455	-18059.265	0.0	0.0	0.0	0.0	0.0	0.0	0.0	0.0	0.0	0.0	0.0	0.0	0.0	0.0	145.79310344827584	0.0	0.01000974	-0.072814755	1.020077955	6.39394	0.41202	-1.17502	3169652.0	1776544728.919279	0.0	1.0	-1.0	-1.0	-1.0	-1.0	-1.0	-1.0	-1.0	-1.0	0.0	marker	opened-hand	Open	7	0418
-66010.72499999999	-51915.015	-97032.915	-17728.469999999998	0.0	0.0	0.0	0.0	0.0	0.0	0.0	0.0	0.0	0.0	0.0	0.0	0.0	0.0	145.79310344827584	0.0	0.01000974	-0.072814755	1.020077955	6.39394	0.41202	-1.17502	3169653.0	1776544728.919293	0.0	1.0	-1.0	-1.0	-1.0	-1.0	-1.0	-1.0	-1.0	-1.0	0.0	marker	opened-hand	Open	7	0418
-66356.415	-51944.67	-97444.62	-17984.295	0.0	0.0	0.0	0.0	0.0	0.0	0.0	0.0	0.0	0.0	0.0	0.0	0.0	0.0	145.79310344827584	0.0	0.01000974	-0.072814755	1.020077955	6.39394	0.41202	-1.17502	3169654.0	1776544728.922331	0.0	1.0	-1.0	-1.0	-1.0	-1.0	-1.0	-1.0	-1.0	-1.0	0.0	marker	opened-hand	Open	7	0418
-66388.95	-51955.604999999996	-97433.01	-18024.885	0.0	0.0	0.0	0.0	0.0	0.0	0.0	0.0	0.0	0.0	0.0	0.0	0.0	0.0	145.79310344827584	0.0	0.01000974	-0.072814755	1.020077955	6.39394	0.41202	-1.17502	3169655.0	1776544728.922345	0.0	1.0	-1.0	-1.0	-1.0	-1.0	-1.0	-1.0	-1.0	-1.0	0.0	marker	opened-hand	Open	7	0418
-66184.92	-51953.625	-97322.44499999999	-17916.885	0.0	0.0	0.0	0.0	0.0	0.0	0.0	0.0	0.0	0.0	0.0	0.0	0.0	0.0	145.79310344827584	0.0	0.01000974	-0.072814755	1.020077955	6.39394	0.41202	-1.17502	3169656.0	1776544728.925338	0.0	1.0	-1.0	-1.0	-1.0	-1.0	-1.0	-1.0	-1.0	-1.0	0.0	marker	opened-hand	Open	7	0418
-66212.73	-51963.795	-97440.03	-18024.48	0.0	0.0	0.0	0.0	0.0	0.0	0.0	0.0	0.0	0.0	0.0	0.0	0.0	0.0	145.79310344827584	0.0	0.01000974	-0.072814755	1.020077955	6.39394	0.41202	-1.17502	3169657.0	1776544728.92535	0.0	1.0	-1.0	-1.0	-1.0	-1.0	-1.0	-1.0	-1.0	-1.0	0.0	marker	opened-hand	Open	7	0418
-66069.135	-51945.299999999996	-97193.16	-17829.315	0.0	0.0	0.0	0.0	0.0	0.0	0.0	0.0	0.0	0.0	0.0	0.0	0.0	0.0	145.79310344827584	0.0	0.01000974	-0.072814755	1.020077955	6.39394	0.41202	-1.17502	3169658.0	1776544728.929373	0.0	1.0	-1.0	-1.0	-1.0	-1.0	-1.0	-1.0	-1.0	-1.0	0.0	marker	opened-hand	Open	7	0418
-66046.995	-51918.704999999994	-97018.29	-17644.23	0.0	0.0	0.0	0.0	0.0	0.0	0.0	0.0	0.0	0.0	0.0	0.0	0.0	0.0	145.79310344827584	0.0	0.01000974	-0.072814755	1.020077955	6.39394	0.41202	-1.17502	3169659.0	1776544728.929389	0.0	1.0	-1.0	-1.0	-1.0	-1.0	-1.0	-1.0	-1.0	-1.0	0.0	marker	opened-hand	Open	7	0418
-65924.45999999999	-51900.704999999994	-96978.735	-17571.915	0.0	0.0	0.0	0.0	0.0	0.0	0.0	0.0	0.0	0.0	0.0	0.0	0.0	0.0	145.79310344827584	0.0	-0.013671840000000001	-0.05883774	1.023740055	5.508859999999999	-0.6714399999999999	-2.5484199999999997	3169660.0	1776544728.935517	0.0	1.0	-1.0	-1.0	-1.0	-1.0	-1.0	-1.0	-1.0	-1.0	0.0	marker	opened-hand	Open	7	0418
-66104.505	-51909.57	-97238.87999999999	-17862.39	0.0	0.0	0.0	0.0	0.0	0.0	0.0	0.0	0.0	0.0	0.0	0.0	0.0	0.0	145.79310344827584	0.0	-0.013671840000000001	-0.05883774	1.023740055	5.508859999999999	-0.6714399999999999	-2.5484199999999997	3169661.0	1776544728.935531	0.0	1.0	-1.0	-1.0	-1.0	-1.0	-1.0	-1.0	-1.0	-1.0	0.0	marker	opened-hand	Open	7	0418
-66194.64	-51909.704999999994	-97268.715	-17901.045	0.0	0.0	0.0	0.0	0.0	0.0	0.0	0.0	0.0	0.0	0.0	0.0	0.0	0.0	145.79310344827584	0.0	-0.013671840000000001	-0.05883774	1.023740055	5.508859999999999	-0.6714399999999999	-2.5484199999999997	3169662.0	1776544728.937334	0.0	1.0	-1.0	-1.0	-1.0	-1.0	-1.0	-1.0	-1.0	-1.0	0.0	marker	opened-hand	Open	7	0418
-66287.06999999999	-51910.965	-97184.06999999999	-17809.965	0.0	0.0	0.0	0.0	0.0	0.0	0.0	0.0	0.0	0.0	0.0	0.0	0.0	0.0	145.79310344827584	0.0	-0.013671840000000001	-0.05883774	1.023740055	5.508859999999999	-0.6714399999999999	-2.5484199999999997	3169663.0	1776544728.93734	0.0	1.0	-1.0	-1.0	-1.0	-1.0	-1.0	-1.0	-1.0	-1.0	0.0	marker	opened-hand	Open	7	0418
-66146.715	-51907.14	-97056.855	-17721.899999999998	0.0	0.0	0.0	0.0	0.0	0.0	0.0	0.0	0.0	0.0	0.0	0.0	0.0	0.0	145.79310344827584	0.0	-0.013671840000000001	-0.05883774	1.023740055	5.508859999999999	-0.6714399999999999	-2.5484199999999997	3169664.0	1776544728.941398	0.0	1.0	-1.0	-1.0	-1.0	-1.0	-1.0	-1.0	-1.0	-1.0	0.0	marker	opened-hand	Open	7	0418
-66106.665	-51915.555	-97149.51	-17822.969999999998	0.0	0.0	0.0	0.0	0.0	0.0	0.0	0.0	0.0	0.0	0.0	0.0	0.0	0.0	145.79310344827584	0.0	-0.013671840000000001	-0.05883774	1.023740055	5.508859999999999	-0.6714399999999999	-2.5484199999999997	3169665.0	1776544728.941413	0.0	1.0	-1.0	-1.0	-1.0	-1.0	-1.0	-1.0	-1.0	-1.0	0.0	marker	opened-hand	Open	7	0418
-66058.155	-51913.439999999995	-97085.7	-17716.094999999998	0.0	0.0	0.0	0.0	0.0	0.0	0.0	0.0	0.0	0.0	0.0	0.0	0.0	0.0	145.79310344827584	0.0	-0.013671840000000001	-0.05883774	1.023740055	5.508859999999999	-0.6714399999999999	-2.5484199999999997	3169666.0	1776544728.951064	0.0	1.0	-1.0	-1.0	-1.0	-1.0	-1.0	-1.0	-1.0	-1.0	0.0	marker	opened-hand	Open	7	0418
-66228.97499999999	-51924.465	-97228.17	-17848.8	0.0	0.0	0.0	0.0	0.0	0.0	0.0	0.0	0.0	0.0	0.0	0.0	0.0	0.0	145.79310344827584	0.0	-0.013671840000000001	-0.05883774	1.023740055	5.508859999999999	-0.6714399999999999	-2.5484199999999997	3169667.0	1776544728.951073	0.0	1.0	-1.0	-1.0	-1.0	-1.0	-1.0	-1.0	-1.0	-1.0	0.0	marker	opened-hand	Open	7	0418
-66357.765	-51934.77	-97394.22	-18003.195	0.0	0.0	0.0	0.0	0.0	0.0	0.0	0.0	0.0	0.0	0.0	0.0	0.0	0.0	145.79310344827584	0.0	-0.013671840000000001	-0.05883774	1.023740055	5.508859999999999	-0.6714399999999999	-2.5484199999999997	3169668.0	1776544728.951081	0.0	1.0	-1.0	-1.0	-1.0	-1.0	-1.0	-1.0	-1.0	-1.0	0.0	marker	opened-hand	Open	7	0418
-66112.69499999999	-51924.15	-97215.03	-17840.79	0.0	0.0	0.0	0.0	0.0	0.0	0.0	0.0	0.0	0.0	0.0	0.0	0.0	0.0	145.79310344827584	0.0	-0.013671840000000001	-0.05883774	1.023740055	5.508859999999999	-0.6714399999999999	-2.5484199999999997	3169669.0	1776544728.951087	0.0	1.0	-1.0	-1.0	-1.0	-1.0	-1.0	-1.0	-1.0	-1.0	0.0	marker	opened-hand	Open	7	0418
-65905.33499999999	-51919.604999999996	-96981.345	-17671.68	0.0	0.0	0.0	0.0	0.0	0.0	0.0	0.0	0.0	0.0	0.0	0.0	0.0	0.0	145.79310344827584	0.0	-0.009826635	-0.04504383	1.025082825	5.1121	-1.00716	0.48832	3169670.0	1776544728.9535	0.0	1.0	-1.0	-1.0	-1.0	-1.0	-1.0	-1.0	-1.0	-1.0	0.0	marker	opened-hand	Open	7	0418
-65769.66	-51923.88	-96682.31999999999	-17460.405	0.0	0.0	0.0	0.0	0.0	0.0	0.0	0.0	0.0	0.0	0.0	0.0	0.0	0.0	145.79310344827584	0.0	-0.009826635	-0.04504383	1.025082825	5.1121	-1.00716	0.48832	3169671.0	1776544728.953515	0.0	1.0	-1.0	-1.0	-1.0	-1.0	-1.0	-1.0	-1.0	-1.0	0.0	marker	opened-hand	Open	7	0418
-66060.98999999999	-51998.805	-97115.805	-17774.37	0.0	0.0	0.0	0.0	0.0	0.0	0.0	0.0	0.0	0.0	0.0	0.0	0.0	0.0	145.79310344827584	0.0	-0.009826635	-0.04504383	1.025082825	5.1121	-1.00716	0.48832	3169672.0	1776544728.957374	0.0	1.0	-1.0	-1.0	-1.0	-1.0	-1.0	-1.0	-1.0	-1.0	0.0	marker	opened-hand	Open	7	0418
-66265.29	-52043.04	-97388.19	-17901.495	0.0	0.0	0.0	0.0	0.0	0.0	0.0	0.0	0.0	0.0	0.0	0.0	0.0	0.0	145.79310344827584	0.0	-0.009826635	-0.04504383	1.025082825	5.1121	-1.00716	0.48832	3169673.0	1776544728.957389	0.0	1.0	-1.0	-1.0	-1.0	-1.0	-1.0	-1.0	-1.0	-1.0	0.0	marker	opened-hand	Open	7	0418
-66260.295	-52041.96	-97297.155	-17839.215	0.0	0.0	0.0	0.0	0.0	0.0	0.0	0.0	0.0	0.0	0.0	0.0	0.0	0.0	145.79310344827584	0.0	-0.009826635	-0.04504383	1.025082825	5.1121	-1.00716	0.48832	3169674.0	1776544728.961394	0.0	1.0	-1.0	-1.0	-1.0	-1.0	-1.0	-1.0	-1.0	-1.0	0.0	marker	opened-hand	Open	7	0418
-66177.045	-52023.195	-97215.48	-17841.96	0.0	0.0	0.0	0.0	0.0	0.0	0.0	0.0	0.0	0.0	0.0	0.0	0.0	0.0	145.79310344827584	0.0	-0.009826635	-0.04504383	1.025082825	5.1121	-1.00716	0.48832	3169675.0	1776544728.961408	0.0	1.0	-1.0	-1.0	-1.0	-1.0	-1.0	-1.0	-1.0	-1.0	0.0	marker	opened-hand	Open	7	0418
-66202.73999999999	-52029.945	-97327.305	-18065.745	0.0	0.0	0.0	0.0	0.0	0.0	0.0	0.0	0.0	0.0	0.0	0.0	0.0	0.0	145.79310344827584	0.0	-0.009826635	-0.04504383	1.025082825	5.1121	-1.00716	0.48832	3169676.0	1776544728.967509	0.0	1.0	-1.0	-1.0	-1.0	-1.0	-1.0	-1.0	-1.0	-1.0	0.0	marker	opened-hand	Open	7	0418
-66326.67	-52051.14	-97409.47499999999	-18115.02	0.0	0.0	0.0	0.0	0.0	0.0	0.0	0.0	0.0	0.0	0.0	0.0	0.0	0.0	145.79310344827584	0.0	-0.009826635	-0.04504383	1.025082825	5.1121	-1.00716	0.48832	3169677.0	1776544728.967523	0.0	1.0	-1.0	-1.0	-1.0	-1.0	-1.0	-1.0	-1.0	-1.0	0.0	marker	opened-hand	Open	7	0418
-66236.84999999999	-52057.755	-97421.715	-17940.555	0.0	0.0	0.0	0.0	0.0	0.0	0.0	0.0	0.0	0.0	0.0	0.0	0.0	0.0	145.79310344827584	0.0	-0.009826635	-0.04504383	1.025082825	5.1121	-1.00716	0.48832	3169678.0	1776544728.969995	0.0	1.0	-1.0	-1.0	-1.0	-1.0	-1.0	-1.0	-1.0	-1.0	0.0	marker	opened-hand	Open	7	0418
-66264.705	-52057.979999999996	-97420.76999999999	-17917.515	0.0	0.0	0.0	0.0	0.0	0.0	0.0	0.0	0.0	0.0	0.0	0.0	0.0	0.0	145.79310344827584	0.0	-0.009826635	-0.04504383	1.025082825	5.1121	-1.00716	0.48832	3169679.0	1776544728.970009	0.0	1.0	-1.0	-1.0	-1.0	-1.0	-1.0	-1.0	-1.0	-1.0	0.0	marker	opened-hand	Open	7	0418
-66037.31999999999	-52037.82	-97182.98999999999	-17772.39	0.0	0.0	0.0	0.0	0.0	0.0	0.0	0.0	0.0	0.0	0.0	0.0	0.0	0.0	145.79310344827584	0.0	0.004699695	-0.026000910000000002	1.00488024	1.3734	1.25132	1.38866	3169680.0	1776544728.97788	0.0	1.0	-1.0	-1.0	-1.0	-1.0	-1.0	-1.0	-1.0	-1.0	0.0	marker	opened-hand	Open	7	0418
-65818.70999999999	-52015.365	-96887.06999999999	-17505.405	0.0	0.0	0.0	0.0	0.0	0.0	0.0	0.0	0.0	0.0	0.0	0.0	0.0	0.0	145.79310344827584	0.0	0.004699695	-0.026000910000000002	1.00488024	1.3734	1.25132	1.38866	3169681.0	1776544728.977894	0.0	1.0	-1.0	-1.0	-1.0	-1.0	-1.0	-1.0	-1.0	-1.0	0.0	marker	opened-hand	Open	7	0418
-66098.745	-52030.71	-97153.65	-17740.305	0.0	0.0	0.0	0.0	0.0	0.0	0.0	0.0	0.0	0.0	0.0	0.0	0.0	0.0	145.79310344827584	0.0	0.004699695	-0.026000910000000002	1.00488024	1.3734	1.25132	1.38866	3169682.0	1776544728.977914	0.0	1.0	-1.0	-1.0	-1.0	-1.0	-1.0	-1.0	-1.0	-1.0	0.0	marker	opened-hand	Open	7	0418
-66375.0	-52036.875	-97389.62999999999	-17970.84	0.0	0.0	0.0	0.0	0.0	0.0	0.0	0.0	0.0	0.0	0.0	0.0	0.0	0.0	145.79310344827584	0.0	0.004699695	-0.026000910000000002	1.00488024	1.3734	1.25132	1.38866	3169683.0	1776544728.977921	0.0	1.0	-1.0	-1.0	-1.0	-1.0	-1.0	-1.0	-1.0	-1.0	0.0	marker	opened-hand	Open	7	0418
-66228.97499999999	-52011.314999999995	-97270.37999999999	-17865.63	0.0	0.0	0.0	0.0	0.0	0.0	0.0	0.0	0.0	0.0	0.0	0.0	0.0	0.0	145.79310344827584	0.0	0.004699695	-0.026000910000000002	1.00488024	1.3734	1.25132	1.38866	3169684.0	1776544728.981556	0.0	1.0	-1.0	-1.0	-1.0	-1.0	-1.0	-1.0	-1.0	-1.0	0.0	marker	opened-hand	Open	7	0418
-66003.84	-51989.265	-97045.155	-17655.165	0.0	0.0	0.0	0.0	0.0	0.0	0.0	0.0	0.0	0.0	0.0	0.0	0.0	0.0	145.79310344827584	0.0	0.004699695	-0.026000910000000002	1.00488024	1.3734	1.25132	1.38866	3169685.0	1776544728.981571	0.0	1.0	-1.0	-1.0	-1.0	-1.0	-1.0	-1.0	-1.0	-1.0	0.0	marker	opened-hand	Open	7	0418
-65573.415	-51947.415	-96530.805	-17195.715	0.0	0.0	0.0	0.0	0.0	0.0	0.0	0.0	0.0	0.0	0.0	0.0	0.0	0.0	145.79310344827584	0.0	0.004699695	-0.026000910000000002	1.00488024	1.3734	1.25132	1.38866	3169686.0	1776544728.98549	0.0	1.0	-1.0	-1.0	-1.0	-1.0	-1.0	-1.0	-1.0	-1.0	0.0	marker	opened-hand	Open	7	0418
-65827.845	-51965.189999999995	-96802.515	-17414.91	0.0	0.0	0.0	0.0	0.0	0.0	0.0	0.0	0.0	0.0	0.0	0.0	0.0	0.0	145.79310344827584	0.0	0.004699695	-0.026000910000000002	1.00488024	1.3734	1.25132	1.38866	3169687.0	1776544728.985504	0.0	1.0	-1.0	-1.0	-1.0	-1.0	-1.0	-1.0	-1.0	-1.0	0.0	marker	opened-hand	Open	7	0418
-66350.52	-52022.07	-97498.485	-18107.73	0.0	0.0	0.0	0.0	0.0	0.0	0.0	0.0	0.0	0.0	0.0	0.0	0.0	0.0	145.79310344827584	0.0	0.004699695	-0.026000910000000002	1.00488024	1.3734	1.25132	1.38866	3169688.0	1776544728.992679	0.0	1.0	-1.0	-1.0	-1.0	-1.0	-1.0	-1.0	-1.0	-1.0	0.0	marker	opened-hand	Open	7	0418
-66341.385	-52023.735	-97355.97	-17942.535	0.0	0.0	0.0	0.0	0.0	0.0	0.0	0.0	0.0	0.0	0.0	0.0	0.0	0.0	145.79310344827584	0.0	0.004699695	-0.026000910000000002	1.00488024	1.3734	1.25132	1.38866	3169689.0	1776544728.992699	0.0	1.0	-1.0	-1.0	-1.0	-1.0	-1.0	-1.0	-1.0	-1.0	0.0	marker	opened-hand	Open	7	0418
-66209.13	-52036.965	-97262.325	-17897.13	0.0	0.0	0.0	0.0	0.0	0.0	0.0	0.0	0.0	0.0	0.0	0.0	0.0	0.0	145.79310344827584	0.0	0.009948705	-0.036315825	1.00988511	0.79352	1.26658	0.8392999999999999	3169690.0	1776544728.993518	0.0	1.0	-1.0	-1.0	-1.0	-1.0	-1.0	-1.0	-1.0	-1.0	0.0	marker	opened-hand	Open	7	0418
-66182.67	-52080.165	-97289.86499999999	-17912.43	0.0	0.0	0.0	0.0	0.0	0.0	0.0	0.0	0.0	0.0	0.0	0.0	0.0	0.0	145.79310344827584	0.0	0.009948705	-0.036315825	1.00988511	0.79352	1.26658	0.8392999999999999	3169691.0	1776544728.993537	0.0	1.0	-1.0	-1.0	-1.0	-1.0	-1.0	-1.0	-1.0	-1.0	0.0	marker	opened-hand	Open	7	0418
-66190.72499999999	-52085.655	-97300.935	-17939.25	0.0	0.0	0.0	0.0	0.0	0.0	0.0	0.0	0.0	0.0	0.0	0.0	0.0	0.0	145.79310344827584	0.0	0.009948705	-0.036315825	1.00988511	0.79352	1.26658	0.8392999999999999	3169692.0	1776544728.997485	0.0	1.0	-1.0	-1.0	-1.0	-1.0	-1.0	-1.0	-1.0	-1.0	0.0	marker	opened-hand	Open	7	0418
-66172.095	-52074.494999999995	-97187.58	-17869.005	0.0	0.0	0.0	0.0	0.0	0.0	0.0	0.0	0.0	0.0	0.0	0.0	0.0	0.0	145.79310344827584	0.0	0.009948705	-0.036315825	1.00988511	0.79352	1.26658	0.8392999999999999	3169693.0	1776544728.997515	0.0	1.0	-1.0	-1.0	-1.0	-1.0	-1.0	-1.0	-1.0	-1.0	0.0	marker	opened-hand	Open	7	0418
-66123.765	-52064.055	-97286.715	-17835.255	0.0	0.0	0.0	0.0	0.0	0.0	0.0	0.0	0.0	0.0	0.0	0.0	0.0	0.0	145.79310344827584	0.0	0.009948705	-0.036315825	1.00988511	0.79352	1.26658	0.8392999999999999	3169694.0	1776544729.001852	0.0	1.0	-1.0	-1.0	-1.0	-1.0	-1.0	-1.0	-1.0	-1.0	0.0	marker	opened-hand	Open	7	0418
-66321.45	-52067.07	-97455.23999999999	-17917.695	0.0	0.0	0.0	0.0	0.0	0.0	0.0	0.0	0.0	0.0	0.0	0.0	0.0	0.0	145.79310344827584	0.0	0.009948705	-0.036315825	1.00988511	0.79352	1.26658	0.8392999999999999	3169695.0	1776544729.001871	0.0	1.0	-1.0	-1.0	-1.0	-1.0	-1.0	-1.0	-1.0	-1.0	0.0	marker	opened-hand	Open	7	0418
-66144.285	-52060.994999999995	-97254.405	-17826.3	0.0	0.0	0.0	0.0	0.0	0.0	0.0	0.0	0.0	0.0	0.0	0.0	0.0	0.0	145.79310344827584	0.0	0.009948705	-0.036315825	1.00988511	0.79352	1.26658	0.8392999999999999	3169696.0	1776544729.006065	0.0	1.0	-1.0	-1.0	-1.0	-1.0	-1.0	-1.0	-1.0	-1.0	0.0	marker	opened-hand	Open	7	0418
-66144.33	-52069.905	-97170.20999999999	-17751.105	0.0	0.0	0.0	0.0	0.0	0.0	0.0	0.0	0.0	0.0	0.0	0.0	0.0	0.0	145.79310344827584	0.0	0.009948705	-0.036315825	1.00988511	0.79352	1.26658	0.8392999999999999	3169697.0	1776544729.006093	0.0	1.0	-1.0	-1.0	-1.0	-1.0	-1.0	-1.0	-1.0	-1.0	0.0	marker	opened-hand	Open	7	0418
-66108.105	-52076.835	-97189.47	-17778.195	0.0	0.0	0.0	0.0	0.0	0.0	0.0	0.0	0.0	0.0	0.0	0.0	0.0	0.0	145.79310344827584	0.0	0.009948705	-0.036315825	1.00988511	0.79352	1.26658	0.8392999999999999	3169698.0	1776544729.04043	0.0	1.0	-1.0	-1.0	-1.0	-1.0	-1.0	-1.0	-1.0	-1.0	0.0	marker	opened-hand	Open	7	0418
-66029.265	-52065.674999999996	-97177.545	-17746.155	0.0	0.0	0.0	0.0	0.0	0.0	0.0	0.0	0.0	0.0	0.0	0.0	0.0	0.0	145.79310344827584	0.0	0.009948705	-0.036315825	1.00988511	0.79352	1.26658	0.8392999999999999	3169699.0	1776544729.040459	0.0	1.0	-1.0	-1.0	-1.0	-1.0	-1.0	-1.0	-1.0	-1.0	0.0	marker	opened-hand	Open	7	0418
-66176.19	-52064.325	-97288.56	-17857.89	0.0	0.0	0.0	0.0	0.0	0.0	0.0	0.0	0.0	0.0	0.0	0.0	0.0	0.0	145.79310344827584	0.0	0.00073242	-0.061462245	1.01537826	3.6166199999999997	0.59514	-1.2971	3169700.0	1776544729.0405	0.0	1.0	-1.0	-1.0	-1.0	-1.0	-1.0	-1.0	-1.0	-1.0	0.0	marker	opened-hand	Open	7	0418
-66235.86	-52053.075	-97335.495	-17941.454999999998	0.0	0.0	0.0	0.0	0.0	0.0	0.0	0.0	0.0	0.0	0.0	0.0	0.0	0.0	145.79310344827584	0.0	0.00073242	-0.061462245	1.01537826	3.6166199999999997	0.59514	-1.2971	3169701.0	1776544729.040519	0.0	1.0	-1.0	-1.0	-1.0	-1.0	-1.0	-1.0	-1.0	-1.0	0.0	marker	opened-hand	Open	7	0418
-66294.09	-52054.064999999995	-97415.50499999999	-18083.34	0.0	0.0	0.0	0.0	0.0	0.0	0.0	0.0	0.0	0.0	0.0	0.0	0.0	0.0	145.79310344827584	0.0	0.00073242	-0.061462245	1.01537826	3.6166199999999997	0.59514	-1.2971	3169702.0	1776544729.040542	0.0	1.0	-1.0	-1.0	-1.0	-1.0	-1.0	-1.0	-1.0	-1.0	0.0	marker	opened-hand	Open	7	0418
-66194.64	-52050.869999999995	-97280.595	-17945.325	0.0	0.0	0.0	0.0	0.0	0.0	0.0	0.0	0.0	0.0	0.0	0.0	0.0	0.0	145.79310344827584	0.0	0.00073242	-0.061462245	1.01537826	3.6166199999999997	0.59514	-1.2971	3169703.0	1776544729.040559	0.0	1.0	-1.0	-1.0	-1.0	-1.0	-1.0	-1.0	-1.0	-1.0	0.0	marker	opened-hand	Open	7	0418
-66123.63	-52043.985	-97065.315	-17720.19	0.0	0.0	0.0	0.0	0.0	0.0	0.0	0.0	0.0	0.0	0.0	0.0	0.0	0.0	145.79310344827584	0.0	0.00073242	-0.061462245	1.01537826	3.6166199999999997	0.59514	-1.2971	3169704.0	1776544729.040652	0.0	1.0	-1.0	-1.0	-1.0	-1.0	-1.0	-1.0	-1.0	-1.0	0.0	marker	opened-hand	Open	7	0418
-66109.86	-52051.005	-97190.86499999999	-17699.94	0.0	0.0	0.0	0.0	0.0	0.0	0.0	0.0	0.0	0.0	0.0	0.0	0.0	0.0	145.79310344827584	0.0	0.00073242	-0.061462245	1.01537826	3.6166199999999997	0.59514	-1.2971	3169705.0	1776544729.040676	0.0	1.0	-1.0	-1.0	-1.0	-1.0	-1.0	-1.0	-1.0	-1.0	0.0	marker	opened-hand	Open	7	0418
-65983.545	-52056.945	-97165.08	-17645.85	0.0	0.0	0.0	0.0	0.0	0.0	0.0	0.0	0.0	0.0	0.0	0.0	0.0	0.0	145.79310344827584	0.0	0.00073242	-0.061462245	1.01537826	3.6166199999999997	0.59514	-1.2971	3169706.0	1776544729.040704	0.0	1.0	-1.0	-1.0	-1.0	-1.0	-1.0	-1.0	-1.0	-1.0	0.0	marker	opened-hand	Open	7	0418
-65946.645	-52054.92	-97006.995	-17625.015	0.0	0.0	0.0	0.0	0.0	0.0	0.0	0.0	0.0	0.0	0.0	0.0	0.0	0.0	145.79310344827584	0.0	0.00073242	-0.061462245	1.01537826	3.6166199999999997	0.59514	-1.2971	3169707.0	1776544729.040724	0.0	1.0	-1.0	-1.0	-1.0	-1.0	-1.0	-1.0	-1.0	-1.0	0.0	marker	opened-hand	Open	7	0418
-66296.43	-52081.695	-97205.58	-17900.055	0.0	0.0	0.0	0.0	0.0	0.0	0.0	0.0	0.0	0.0	0.0	0.0	0.0	0.0	145.79310344827584	0.0	0.00073242	-0.061462245	1.01537826	3.6166199999999997	0.59514	-1.2971	3169708.0	1776544729.040751	0.0	1.0	-1.0	-1.0	-1.0	-1.0	-1.0	-1.0	-1.0	-1.0	0.0	marker	opened-hand	Open	7	0418
-66170.25	-52075.125	-97172.64	-17790.524999999998	0.0	0.0	0.0	0.0	0.0	0.0	0.0	0.0	0.0	0.0	0.0	0.0	0.0	0.0	145.79310344827584	0.0	0.00073242	-0.061462245	1.01537826	3.6166199999999997	0.59514	-1.2971	3169709.0	1776544729.04077	0.0	1.0	-1.0	-1.0	-1.0	-1.0	-1.0	-1.0	-1.0	-1.0	0.0	marker	opened-hand	Open	7	0418
-66263.44499999999	-52068.015	-97415.955	-17988.434999999998	0.0	0.0	0.0	0.0	0.0	0.0	0.0	0.0	0.0	0.0	0.0	0.0	0.0	0.0	145.79310344827584	0.0	-0.004577625	-0.057433935	1.027035945	4.6085199999999995	-0.3815	-0.30519999999999997	3169710.0	1776544729.040799	0.0	1.0	-1.0	-1.0	-1.0	-1.0	-1.0	-1.0	-1.0	-1.0	0.0	marker	opened-hand	Open	7	0418
-66231.63	-52061.715	-97318.215	-17884.26	0.0	0.0	0.0	0.0	0.0	0.0	0.0	0.0	0.0	0.0	0.0	0.0	0.0	0.0	145.79310344827584	0.0	-0.004577625	-0.057433935	1.027035945	4.6085199999999995	-0.3815	-0.30519999999999997	3169711.0	1776544729.040818	0.0	1.0	-1.0	-1.0	-1.0	-1.0	-1.0	-1.0	-1.0	-1.0	0.0	marker	opened-hand	Open	7	0418
-65722.77	-52036.11	-96860.745	-17481.96	0.0	0.0	0.0	0.0	0.0	0.0	0.0	0.0	0.0	0.0	0.0	0.0	0.0	0.0	145.79310344827584	0.0	-0.004577625	-0.057433935	1.027035945	4.6085199999999995	-0.3815	-0.30519999999999997	3169712.0	1776544729.040845	0.0	1.0	-1.0	-1.0	-1.0	-1.0	-1.0	-1.0	-1.0	-1.0	0.0	marker	opened-hand	Open	7	0418
-65766.23999999999	-52030.53	-96747.56999999999	-17428.41	0.0	0.0	0.0	0.0	0.0	0.0	0.0	0.0	0.0	0.0	0.0	0.0	0.0	0.0	145.79310344827584	0.0	-0.004577625	-0.057433935	1.027035945	4.6085199999999995	-0.3815	-0.30519999999999997	3169713.0	1776544729.040864	0.0	1.0	-1.0	-1.0	-1.0	-1.0	-1.0	-1.0	-1.0	-1.0	0.0	marker	opened-hand	Open	7	0418
-66356.64	-52066.755	-97313.76	-17898.39	0.0	0.0	0.0	0.0	0.0	0.0	0.0	0.0	0.0	0.0	0.0	0.0	0.0	0.0	145.79310344827584	0.0	-0.004577625	-0.057433935	1.027035945	4.6085199999999995	-0.3815	-0.30519999999999997	3169714.0	1776544729.043368	0.0	1.0	-1.0	-1.0	-1.0	-1.0	-1.0	-1.0	-1.0	-1.0	0.0	marker	opened-hand	Open	7	0418
-66417.39	-52080.93	-97600.76999999999	-18142.92	0.0	0.0	0.0	0.0	0.0	0.0	0.0	0.0	0.0	0.0	0.0	0.0	0.0	0.0	145.79310344827584	0.0	-0.004577625	-0.057433935	1.027035945	4.6085199999999995	-0.3815	-0.30519999999999997	3169715.0	1776544729.043388	0.0	1.0	-1.0	-1.0	-1.0	-1.0	-1.0	-1.0	-1.0	-1.0	0.0	marker	opened-hand	Open	7	0418
-66185.145	-52068.96	-97446.735	-18006.165	0.0	0.0	0.0	0.0	0.0	0.0	0.0	0.0	0.0	0.0	0.0	0.0	0.0	0.0	145.79310344827584	0.0	-0.004577625	-0.057433935	1.027035945	4.6085199999999995	-0.3815	-0.30519999999999997	3169716.0	1776544729.047902	0.0	1.0	-1.0	-1.0	-1.0	-1.0	-1.0	-1.0	-1.0	-1.0	0.0	marker	opened-hand	Open	7	0418
-65987.235	-52049.97	-97172.81999999999	-17706.87	0.0	0.0	0.0	0.0	0.0	0.0	0.0	0.0	0.0	0.0	0.0	0.0	0.0	0.0	145.79310344827584	0.0	-0.004577625	-0.057433935	1.027035945	4.6085199999999995	-0.3815	-0.30519999999999997	3169717.0	1776544729.04795	0.0	1.0	-1.0	-1.0	-1.0	-1.0	-1.0	-1.0	-1.0	-1.0	0.0	marker	opened-hand	Open	7	0418
-66091.995	-52066.53	-97184.25	-17808.075	0.0	0.0	0.0	0.0	0.0	0.0	0.0	0.0	0.0	0.0	0.0	0.0	0.0	0.0	145.79310344827584	0.0	-0.004577625	-0.057433935	1.027035945	4.6085199999999995	-0.3815	-0.30519999999999997	3169718.0	1776544729.049688	0.0	1.0	-1.0	-1.0	-1.0	-1.0	-1.0	-1.0	-1.0	-1.0	0.0	marker	opened-hand	Open	7	0418
-66422.7	-52085.384999999995	-97503.61499999999	-18035.55	0.0	0.0	0.0	0.0	0.0	0.0	0.0	0.0	0.0	0.0	0.0	0.0	0.0	0.0	145.79310344827584	0.0	-0.004577625	-0.057433935	1.027035945	4.6085199999999995	-0.3815	-0.30519999999999997	3169719.0	1776544729.049706	0.0	1.0	-1.0	-1.0	-1.0	-1.0	-1.0	-1.0	-1.0	-1.0	0.0	marker	opened-hand	Open	7	0418
-66340.575	-52076.79	-97441.11	-17959.77	0.0	0.0	0.0	0.0	0.0	0.0	0.0	0.0	0.0	0.0	0.0	0.0	0.0	0.0	145.79310344827584	0.0	-0.00878904	-0.039733785	1.024960755	2.48738	-0.25942	0.94612	3169720.0	1776544729.053671	0.0	1.0	-1.0	-1.0	-1.0	-1.0	-1.0	-1.0	-1.0	-1.0	0.0	marker	opened-hand	Open	7	0418
-66343.815	-52087.814999999995	-97408.125	-17959.094999999998	0.0	0.0	0.0	0.0	0.0	0.0	0.0	0.0	0.0	0.0	0.0	0.0	0.0	0.0	145.79310344827584	0.0	-0.00878904	-0.039733785	1.024960755	2.48738	-0.25942	0.94612	3169721.0	1776544729.05369	0.0	1.0	-1.0	-1.0	-1.0	-1.0	-1.0	-1.0	-1.0	-1.0	0.0	marker	opened-hand	Open	7	0418
-66189.555	-52087.454999999994	-97214.44499999999	-17788.274999999998	0.0	0.0	0.0	0.0	0.0	0.0	0.0	0.0	0.0	0.0	0.0	0.0	0.0	0.0	145.79310344827584	0.0	-0.00878904	-0.039733785	1.024960755	2.48738	-0.25942	0.94612	3169722.0	1776544729.057709	0.0	1.0	-1.0	-1.0	-1.0	-1.0	-1.0	-1.0	-1.0	-1.0	0.0	marker	opened-hand	Open	7	0418
-66066.03	-52082.82	-97253.73	-17840.295	0.0	0.0	0.0	0.0	0.0	0.0	0.0	0.0	0.0	0.0	0.0	0.0	0.0	0.0	145.79310344827584	0.0	-0.00878904	-0.039733785	1.024960755	2.48738	-0.25942	0.94612	3169723.0	1776544729.05773	0.0	1.0	-1.0	-1.0	-1.0	-1.0	-1.0	-1.0	-1.0	-1.0	0.0	marker	opened-hand	Open	7	0418
-65878.56	-52076.204999999994	-97145.595	-17765.01	0.0	0.0	0.0	0.0	0.0	0.0	0.0	0.0	0.0	0.0	0.0	0.0	0.0	0.0	145.79310344827584	0.0	-0.00878904	-0.039733785	1.024960755	2.48738	-0.25942	0.94612	3169724.0	1776544729.061784	0.0	1.0	-1.0	-1.0	-1.0	-1.0	-1.0	-1.0	-1.0	-1.0	0.0	marker	opened-hand	Open	7	0418
-66039.795	-52073.189999999995	-97003.845	-17687.79	0.0	0.0	0.0	0.0	0.0	0.0	0.0	0.0	0.0	0.0	0.0	0.0	0.0	0.0	145.79310344827584	0.0	-0.00878904	-0.039733785	1.024960755	2.48738	-0.25942	0.94612	3169725.0	1776544729.061799	0.0	1.0	-1.0	-1.0	-1.0	-1.0	-1.0	-1.0	-1.0	-1.0	0.0	marker	opened-hand	Open	7	0418
-65813.715	-52056.45	-96822.765	-17493.704999999998	0.0	0.0	0.0	0.0	0.0	0.0	0.0	0.0	0.0	0.0	0.0	0.0	0.0	0.0	145.79310344827584	0.0	-0.00878904	-0.039733785	1.024960755	2.48738	-0.25942	0.94612	3169726.0	1776544729.07	0.0	1.0	-1.0	-1.0	-1.0	-1.0	-1.0	-1.0	-1.0	-1.0	0.0	marker	opened-hand	Open	7	0418
-66202.02	-52103.295	-97546.545	-18019.89	0.0	0.0	0.0	0.0	0.0	0.0	0.0	0.0	0.0	0.0	0.0	0.0	0.0	0.0	145.79310344827584	0.0	-0.00878904	-0.039733785	1.024960755	2.48738	-0.25942	0.94612	3169727.0	1776544729.070032	0.0	1.0	-1.0	-1.0	-1.0	-1.0	-1.0	-1.0	-1.0	-1.0	0.0	marker	opened-hand	Open	7	0418
-66166.245	-52105.185	-97429.5	-17933.985	0.0	0.0	0.0	0.0	0.0	0.0	0.0	0.0	0.0	0.0	0.0	0.0	0.0	0.0	145.79310344827584	0.0	-0.00878904	-0.039733785	1.024960755	2.48738	-0.25942	0.94612	3169728.0	1776544729.070069	0.0	1.0	-1.0	-1.0	-1.0	-1.0	-1.0	-1.0	-1.0	-1.0	0.0	marker	opened-hand	Open	7	0418
-66288.645	-52102.89	-97348.275	-17899.065	0.0	0.0	0.0	0.0	0.0	0.0	0.0	0.0	0.0	0.0	0.0	0.0	0.0	0.0	145.79310344827584	0.0	-0.00878904	-0.039733785	1.024960755	2.48738	-0.25942	0.94612	3169729.0	1776544729.070088	0.0	1.0	-1.0	-1.0	-1.0	-1.0	-1.0	-1.0	-1.0	-1.0	0.0	marker	opened-hand	Open	7	0418
-66158.73	-52103.204999999994	-97306.245	-17879.489999999998	0.0	0.0	0.0	0.0	0.0	0.0	0.0	0.0	0.0	0.0	0.0	0.0	0.0	0.0	145.6551724137931	0.0	0.00708006	-0.03674307	1.01110581	1.51074	0.41202	1.8312	3169730.0	1776544729.073884	0.0	1.0	-1.0	-1.0	-1.0	-1.0	-1.0	-1.0	-1.0	-1.0	0.0	marker	opened-hand	Open	7	0418
-66210.795	-52113.555	-97426.89	-17943.48	0.0	0.0	0.0	0.0	0.0	0.0	0.0	0.0	0.0	0.0	0.0	0.0	0.0	0.0	145.6551724137931	0.0	0.00708006	-0.03674307	1.01110581	1.51074	0.41202	1.8312	3169731.0	1776544729.073904	0.0	1.0	-1.0	-1.0	-1.0	-1.0	-1.0	-1.0	-1.0	-1.0	0.0	marker	opened-hand	Open	7	0418
-66331.34999999999	-52115.354999999996	-97396.065	-17895.42	0.0	0.0	0.0	0.0	0.0	0.0	0.0	0.0	0.0	0.0	0.0	0.0	0.0	0.0	145.6551724137931	0.0	0.00708006	-0.03674307	1.01110581	1.51074	0.41202	1.8312	3169732.0	1776544729.079282	0.0	1.0	-1.0	-1.0	-1.0	-1.0	-1.0	-1.0	-1.0	-1.0	0.0	marker	opened-hand	Open	7	0418
-66222.54	-52097.22	-97230.15	-17752.905	0.0	0.0	0.0	0.0	0.0	0.0	0.0	0.0	0.0	0.0	0.0	0.0	0.0	0.0	145.6551724137931	0.0	0.00708006	-0.03674307	1.01110581	1.51074	0.41202	1.8312	3169733.0	1776544729.079301	0.0	1.0	-1.0	-1.0	-1.0	-1.0	-1.0	-1.0	-1.0	-1.0	0.0	marker	opened-hand	Open	7	0418
-66000.87	-52079.805	-97075.98	-17638.38	0.0	0.0	0.0	0.0	0.0	0.0	0.0	0.0	0.0	0.0	0.0	0.0	0.0	0.0	145.6551724137931	0.0	0.00708006	-0.03674307	1.01110581	1.51074	0.41202	1.8312	3169734.0	1776544729.081924	0.0	1.0	-1.0	-1.0	-1.0	-1.0	-1.0	-1.0	-1.0	-1.0	0.0	marker	opened-hand	Open	7	0418
-65828.565	-52068.329999999994	-96947.595	-17536.05	0.0	0.0	0.0	0.0	0.0	0.0	0.0	0.0	0.0	0.0	0.0	0.0	0.0	0.0	145.6551724137931	0.0	0.00708006	-0.03674307	1.01110581	1.51074	0.41202	1.8312	3169735.0	1776544729.081943	0.0	1.0	-1.0	-1.0	-1.0	-1.0	-1.0	-1.0	-1.0	-1.0	0.0	marker	opened-hand	Open	7	0418
-66204.9	-52076.79	-97237.89	-17842.454999999998	0.0	0.0	0.0	0.0	0.0	0.0	0.0	0.0	0.0	0.0	0.0	0.0	0.0	0.0	145.6551724137931	0.0	0.00708006	-0.03674307	1.01110581	1.51074	0.41202	1.8312	3169736.0	1776544729.085903	0.0	1.0	-1.0	-1.0	-1.0	-1.0	-1.0	-1.0	-1.0	-1.0	0.0	marker	opened-hand	Open	7	0418
-66430.485	-52083.09	-97612.11	-18194.76	0.0	0.0	0.0	0.0	0.0	0.0	0.0	0.0	0.0	0.0	0.0	0.0	0.0	0.0	145.6551724137931	0.0	0.00708006	-0.03674307	1.01110581	1.51074	0.41202	1.8312	3169737.0	1776544729.085921	0.0	1.0	-1.0	-1.0	-1.0	-1.0	-1.0	-1.0	-1.0	-1.0	0.0	marker	opened-hand	Open	7	0418
-66243.015	-52067.295	-97428.915	-17928.989999999998	0.0	0.0	0.0	0.0	0.0	0.0	0.0	0.0	0.0	0.0	0.0	0.0	0.0	0.0	145.6551724137931	0.0	0.00708006	-0.03674307	1.01110581	1.51074	0.41202	1.8312	3169738.0	1776544729.08982	0.0	1.0	-1.0	-1.0	-1.0	-1.0	-1.0	-1.0	-1.0	-1.0	0.0	marker	opened-hand	Open	7	0418
-66100.95	-52068.735	-97200.72	-17705.34	0.0	0.0	0.0	0.0	0.0	0.0	0.0	0.0	0.0	0.0	0.0	0.0	0.0	0.0	145.6551724137931	0.0	0.00708006	-0.03674307	1.01110581	1.51074	0.41202	1.8312	3169739.0	1776544729.089839	0.0	1.0	-1.0	-1.0	-1.0	-1.0	-1.0	-1.0	-1.0	-1.0	0.0	marker	opened-hand	Open	7	0418
-66142.665	-52075.89	-97184.06999999999	-17719.38	0.0	0.0	0.0	0.0	0.0	0.0	0.0	0.0	0.0	0.0	0.0	0.0	0.0	0.0	145.6551724137931	0.0	0.01562496	-0.048766965	1.010434425	1.6785999999999999	1.35814	0.35097999999999996	3169740.0	1776544729.095873	0.0	1.0	-1.0	-1.0	-1.0	-1.0	-1.0	-1.0	-1.0	-1.0	0.0	marker	opened-hand	Open	7	0418
-65882.565	-52061.715	-96942.555	-17525.34	0.0	0.0	0.0	0.0	0.0	0.0	0.0	0.0	0.0	0.0	0.0	0.0	0.0	0.0	145.6551724137931	0.0	0.01562496	-0.048766965	1.010434425	1.6785999999999999	1.35814	0.35097999999999996	3169741.0	1776544729.095892	0.0	1.0	-1.0	-1.0	-1.0	-1.0	-1.0	-1.0	-1.0	-1.0	0.0	marker	opened-hand	Open	7	0418
-65537.91	-52027.695	-96602.76	-17147.07	0.0	0.0	0.0	0.0	0.0	0.0	0.0	0.0	0.0	0.0	0.0	0.0	0.0	0.0	145.6551724137931	0.0	0.01562496	-0.048766965	1.010434425	1.6785999999999999	1.35814	0.35097999999999996	3169742.0	1776544729.097873	0.0	1.0	-1.0	-1.0	-1.0	-1.0	-1.0	-1.0	-1.0	-1.0	0.0	marker	opened-hand	Open	7	0418
-66343.31999999999	-52067.52	-97457.89499999999	-17948.79	0.0	0.0	0.0	0.0	0.0	0.0	0.0	0.0	0.0	0.0	0.0	0.0	0.0	0.0	145.6551724137931	0.0	0.01562496	-0.048766965	1.010434425	1.6785999999999999	1.35814	0.35097999999999996	3169743.0	1776544729.097891	0.0	1.0	-1.0	-1.0	-1.0	-1.0	-1.0	-1.0	-1.0	-1.0	0.0	marker	opened-hand	Open	7	0418
-66565.08	-52089.84	-97772.58	-18302.219999999998	0.0	0.0	0.0	0.0	0.0	0.0	0.0	0.0	0.0	0.0	0.0	0.0	0.0	0.0	145.6551724137931	0.0	0.01562496	-0.048766965	1.010434425	1.6785999999999999	1.35814	0.35097999999999996	3169744.0	1776544729.101976	0.0	1.0	-1.0	-1.0	-1.0	-1.0	-1.0	-1.0	-1.0	-1.0	0.0	marker	opened-hand	Open	7	0418
-66409.515	-52078.68	-97639.73999999999	-18178.155	0.0	0.0	0.0	0.0	0.0	0.0	0.0	0.0	0.0	0.0	0.0	0.0	0.0	0.0	145.6551724137931	0.0	0.01562496	-0.048766965	1.010434425	1.6785999999999999	1.35814	0.35097999999999996	3169745.0	1776544729.101997	0.0	1.0	-1.0	-1.0	-1.0	-1.0	-1.0	-1.0	-1.0	-1.0	0.0	marker	opened-hand	Open	7	0418
-66181.14	-52051.049999999996	-97377.48	-17942.489999999998	0.0	0.0	0.0	0.0	0.0	0.0	0.0	0.0	0.0	0.0	0.0	0.0	0.0	0.0	145.6551724137931	0.0	0.01562496	-0.048766965	1.010434425	1.6785999999999999	1.35814	0.35097999999999996	3169746.0	1776544729.106009	0.0	1.0	-1.0	-1.0	-1.0	-1.0	-1.0	-1.0	-1.0	-1.0	0.0	marker	opened-hand	Open	7	0418
-66082.995	-52049.79	-97285.635	-17857.26	0.0	0.0	0.0	0.0	0.0	0.0	0.0	0.0	0.0	0.0	0.0	0.0	0.0	0.0	145.6551724137931	0.0	0.01562496	-0.048766965	1.010434425	1.6785999999999999	1.35814	0.35097999999999996	3169747.0	1776544729.106029	0.0	1.0	-1.0	-1.0	-1.0	-1.0	-1.0	-1.0	-1.0	-1.0	0.0	marker	opened-hand	Open	7	0418
-65889.315	-52052.85	-97086.69	-17685.405	0.0	0.0	0.0	0.0	0.0	0.0	0.0	0.0	0.0	0.0	0.0	0.0	0.0	0.0	145.6551724137931	0.0	0.01562496	-0.048766965	1.010434425	1.6785999999999999	1.35814	0.35097999999999996	3169748.0	1776544729.109897	0.0	1.0	-1.0	-1.0	-1.0	-1.0	-1.0	-1.0	-1.0	-1.0	0.0	marker	opened-hand	Open	7	0418
-65996.81999999999	-52047.72	-97072.785	-17650.485	0.0	0.0	0.0	0.0	0.0	0.0	0.0	0.0	0.0	0.0	0.0	0.0	0.0	0.0	145.6551724137931	0.0	0.01562496	-0.048766965	1.010434425	1.6785999999999999	1.35814	0.35097999999999996	3169749.0	1776544729.109915	0.0	1.0	-1.0	-1.0	-1.0	-1.0	-1.0	-1.0	-1.0	-1.0	0.0	marker	opened-hand	Open	7	0418
-66246.075	-52047.314999999995	-97247.745	-17763.704999999998	0.0	0.0	0.0	0.0	0.0	0.0	0.0	0.0	0.0	0.0	0.0	0.0	0.0	0.0	145.6551724137931	0.0	0.005676255	-0.06689436	1.00903062	5.85984	1.25132	-2.38056	3169750.0	1776544729.116121	0.0	1.0	-1.0	-1.0	-1.0	-1.0	-1.0	-1.0	-1.0	-1.0	0.0	marker	opened-hand	Open	7	0418
-66215.655	-52039.89	-97312.905	-17832.915	0.0	0.0	0.0	0.0	0.0	0.0	0.0	0.0	0.0	0.0	0.0	0.0	0.0	0.0	145.6551724137931	0.0	0.005676255	-0.06689436	1.00903062	5.85984	1.25132	-2.38056	3169751.0	1776544729.116151	0.0	1.0	-1.0	-1.0	-1.0	-1.0	-1.0	-1.0	-1.0	-1.0	0.0	marker	opened-hand	Open	7	0418
-66167.73	-52044.75	-97431.435	-18020.34	0.0	0.0	0.0	0.0	0.0	0.0	0.0	0.0	0.0	0.0	0.0	0.0	0.0	0.0	145.6551724137931	0.0	0.005676255	-0.06689436	1.00903062	5.85984	1.25132	-2.38056	3169752.0	1776544729.119212	0.0	1.0	-1.0	-1.0	-1.0	-1.0	-1.0	-1.0	-1.0	-1.0	0.0	marker	opened-hand	Open	7	0418
-65976.61499999999	-52021.53	-97087.59	-17646.57	0.0	0.0	0.0	0.0	0.0	0.0	0.0	0.0	0.0	0.0	0.0	0.0	0.0	0.0	145.6551724137931	0.0	0.005676255	-0.06689436	1.00903062	5.85984	1.25132	-2.38056	3169753.0	1776544729.119241	0.0	1.0	-1.0	-1.0	-1.0	-1.0	-1.0	-1.0	-1.0	-1.0	0.0	marker	opened-hand	Open	7	0418
-66120.165	-52028.46	-97240.23	-17794.17	0.0	0.0	0.0	0.0	0.0	0.0	0.0	0.0	0.0	0.0	0.0	0.0	0.0	0.0	145.6551724137931	0.0	0.005676255	-0.06689436	1.00903062	5.85984	1.25132	-2.38056	3169754.0	1776544729.12221	0.0	1.0	-1.0	-1.0	-1.0	-1.0	-1.0	-1.0	-1.0	-1.0	0.0	marker	opened-hand	Open	7	0418
-66081.555	-52042.229999999996	-97384.455	-17945.145	0.0	0.0	0.0	0.0	0.0	0.0	0.0	0.0	0.0	0.0	0.0	0.0	0.0	0.0	145.6551724137931	0.0	0.005676255	-0.06689436	1.00903062	5.85984	1.25132	-2.38056	3169755.0	1776544729.12223	0.0	1.0	-1.0	-1.0	-1.0	-1.0	-1.0	-1.0	-1.0	-1.0	0.0	marker	opened-hand	Open	7	0418
-66148.92	-52049.924999999996	-97363.62	-17848.125	0.0	0.0	0.0	0.0	0.0	0.0	0.0	0.0	0.0	0.0	0.0	0.0	0.0	0.0	145.6551724137931	0.0	0.005676255	-0.06689436	1.00903062	5.85984	1.25132	-2.38056	3169756.0	1776544729.126025	0.0	1.0	-1.0	-1.0	-1.0	-1.0	-1.0	-1.0	-1.0	-1.0	0.0	marker	opened-hand	Open	7	0418
-66293.86499999999	-52047.27	-97477.065	-17998.29	0.0	0.0	0.0	0.0	0.0	0.0	0.0	0.0	0.0	0.0	0.0	0.0	0.0	0.0	145.6551724137931	0.0	0.005676255	-0.06689436	1.00903062	5.85984	1.25132	-2.38056	3169757.0	1776544729.126045	0.0	1.0	-1.0	-1.0	-1.0	-1.0	-1.0	-1.0	-1.0	-1.0	0.0	marker	opened-hand	Open	7	0418
-66231.94499999999	-52038.45	-97377.56999999999	-17887.5	0.0	0.0	0.0	0.0	0.0	0.0	0.0	0.0	0.0	0.0	0.0	0.0	0.0	0.0	145.6551724137931	0.0	0.005676255	-0.06689436	1.00903062	5.85984	1.25132	-2.38056	3169758.0	1776544729.130065	0.0	1.0	-1.0	-1.0	-1.0	-1.0	-1.0	-1.0	-1.0	-1.0	0.0	marker	opened-hand	Open	7	0418
-66336.165	-52027.829999999994	-97339.14	-17947.844999999998	0.0	0.0	0.0	0.0	0.0	0.0	0.0	0.0	0.0	0.0	0.0	0.0	0.0	0.0	145.6551724137931	0.0	0.005676255	-0.06689436	1.00903062	5.85984	1.25132	-2.38056	3169759.0	1776544729.130087	0.0	1.0	-1.0	-1.0	-1.0	-1.0	-1.0	-1.0	-1.0	-1.0	0.0	marker	opened-hand	Open	7	0418
-66112.245	-52003.979999999996	-97108.29	-17729.684999999998	0.0	0.0	0.0	0.0	0.0	0.0	0.0	0.0	0.0	0.0	0.0	0.0	0.0	0.0	145.6551724137931	0.0	0.00048828	-0.068176095	1.026669735	6.76018	0.13734	-2.48738	3169760.0	1776544729.134142	0.0	1.0	-1.0	-1.0	-1.0	-1.0	-1.0	-1.0	-1.0	-1.0	0.0	marker	opened-hand	Open	7	0418
-66006.27	-51993.27	-97171.01999999999	-17594.055	0.0	0.0	0.0	0.0	0.0	0.0	0.0	0.0	0.0	0.0	0.0	0.0	0.0	0.0	145.6551724137931	0.0	0.00048828	-0.068176095	1.026669735	6.76018	0.13734	-2.48738	3169761.0	1776544729.134162	0.0	1.0	-1.0	-1.0	-1.0	-1.0	-1.0	-1.0	-1.0	-1.0	0.0	marker	opened-hand	Open	7	0418
-66149.91	-52002.72	-97216.605	-17670.285	0.0	0.0	0.0	0.0	0.0	0.0	0.0	0.0	0.0	0.0	0.0	0.0	0.0	0.0	145.6551724137931	0.0	0.00048828	-0.068176095	1.026669735	6.76018	0.13734	-2.48738	3169762.0	1776544729.138041	0.0	1.0	-1.0	-1.0	-1.0	-1.0	-1.0	-1.0	-1.0	-1.0	0.0	marker	opened-hand	Open	7	0418
-66233.79	-52025.895	-97443.135	-17963.01	0.0	0.0	0.0	0.0	0.0	0.0	0.0	0.0	0.0	0.0	0.0	0.0	0.0	0.0	145.6551724137931	0.0	0.00048828	-0.068176095	1.026669735	6.76018	0.13734	-2.48738	3169763.0	1776544729.138061	0.0	1.0	-1.0	-1.0	-1.0	-1.0	-1.0	-1.0	-1.0	-1.0	0.0	marker	opened-hand	Open	7	0418
-66022.155	-52025.4	-97250.22	-17792.73	0.0	0.0	0.0	0.0	0.0	0.0	0.0	0.0	0.0	0.0	0.0	0.0	0.0	0.0	145.6551724137931	0.0	0.00048828	-0.068176095	1.026669735	6.76018	0.13734	-2.48738	3169764.0	1776544729.142272	0.0	1.0	-1.0	-1.0	-1.0	-1.0	-1.0	-1.0	-1.0	-1.0	0.0	marker	opened-hand	Open	7	0418
-65951.595	-52029.405	-97090.11	-17657.1	0.0	0.0	0.0	0.0	0.0	0.0	0.0	0.0	0.0	0.0	0.0	0.0	0.0	0.0	145.6551724137931	0.0	0.00048828	-0.068176095	1.026669735	6.76018	0.13734	-2.48738	3169765.0	1776544729.14229	0.0	1.0	-1.0	-1.0	-1.0	-1.0	-1.0	-1.0	-1.0	-1.0	0.0	marker	opened-hand	Open	7	0418
-66041.19	-52041.78	-97202.47499999999	-17743.14	0.0	0.0	0.0	0.0	0.0	0.0	0.0	0.0	0.0	0.0	0.0	0.0	0.0	0.0	145.6551724137931	0.0	0.00048828	-0.068176095	1.026669735	6.76018	0.13734	-2.48738	3169766.0	1776544729.150875	0.0	1.0	-1.0	-1.0	-1.0	-1.0	-1.0	-1.0	-1.0	-1.0	0.0	marker	opened-hand	Open	7	0418
-65838.59999999999	-52022.79	-97079.89499999999	-17595.989999999998	0.0	0.0	0.0	0.0	0.0	0.0	0.0	0.0	0.0	0.0	0.0	0.0	0.0	0.0	145.6551724137931	0.0	0.00048828	-0.068176095	1.026669735	6.76018	0.13734	-2.48738	3169767.0	1776544729.150904	0.0	1.0	-1.0	-1.0	-1.0	-1.0	-1.0	-1.0	-1.0	-1.0	0.0	marker	opened-hand	Open	7	0418
-66217.31999999999	-52026.704999999994	-97339.905	-17835.39	0.0	0.0	0.0	0.0	0.0	0.0	0.0	0.0	0.0	0.0	0.0	0.0	0.0	0.0	145.6551724137931	0.0	0.00048828	-0.068176095	1.026669735	6.76018	0.13734	-2.48738	3169768.0	1776544729.150934	0.0	1.0	-1.0	-1.0	-1.0	-1.0	-1.0	-1.0	-1.0	-1.0	0.0	marker	opened-hand	Open	7	0418
-66281.67	-52020.314999999995	-97423.245	-17997.93	0.0	0.0	0.0	0.0	0.0	0.0	0.0	0.0	0.0	0.0	0.0	0.0	0.0	0.0	145.6551724137931	0.0	0.00048828	-0.068176095	1.026669735	6.76018	0.13734	-2.48738	3169769.0	1776544729.150954	0.0	1.0	-1.0	-1.0	-1.0	-1.0	-1.0	-1.0	-1.0	-1.0	0.0	marker	opened-hand	Open	7	0418
-66155.31	-52008.21	-97317.26999999999	-17929.755	0.0	0.0	0.0	0.0	0.0	0.0	0.0	0.0	0.0	0.0	0.0	0.0	0.0	0.0	145.6551724137931	0.0	-0.01599117	-0.043762095	1.03344462	3.5860999999999996	-1.2055399999999998	-0.12208	3169770.0	1776544729.154023	0.0	1.0	-1.0	-1.0	-1.0	-1.0	-1.0	-1.0	-1.0	-1.0	0.0	marker	opened-hand	Open	7	0418
-66371.84999999999	-52023.645	-97535.47499999999	-18141.524999999998	0.0	0.0	0.0	0.0	0.0	0.0	0.0	0.0	0.0	0.0	0.0	0.0	0.0	0.0	145.6551724137931	0.0	-0.01599117	-0.043762095	1.03344462	3.5860999999999996	-1.2055399999999998	-0.12208	3169771.0	1776544729.154042	0.0	1.0	-1.0	-1.0	-1.0	-1.0	-1.0	-1.0	-1.0	-1.0	0.0	marker	opened-hand	Open	7	0418
-66354.12	-52037.549999999996	-97574.355	-18087.075	0.0	0.0	0.0	0.0	0.0	0.0	0.0	0.0	0.0	0.0	0.0	0.0	0.0	0.0	145.6551724137931	0.0	-0.01599117	-0.043762095	1.03344462	3.5860999999999996	-1.2055399999999998	-0.12208	3169772.0	1776544729.158011	0.0	1.0	-1.0	-1.0	-1.0	-1.0	-1.0	-1.0	-1.0	-1.0	0.0	marker	opened-hand	Open	7	0418
-66268.845	-52047.54	-97501.23	-17928.63	0.0	0.0	0.0	0.0	0.0	0.0	0.0	0.0	0.0	0.0	0.0	0.0	0.0	0.0	145.6551724137931	0.0	-0.01599117	-0.043762095	1.03344462	3.5860999999999996	-1.2055399999999998	-0.12208	3169773.0	1776544729.15803	0.0	1.0	-1.0	-1.0	-1.0	-1.0	-1.0	-1.0	-1.0	-1.0	0.0	marker	opened-hand	Open	7	0418
-66234.465	-52050.869999999995	-97412.625	-17892.765	0.0	0.0	0.0	0.0	0.0	0.0	0.0	0.0	0.0	0.0	0.0	0.0	0.0	0.0	145.6551724137931	0.0	-0.01599117	-0.043762095	1.03344462	3.5860999999999996	-1.2055399999999998	-0.12208	3169774.0	1776544729.162154	0.0	1.0	-1.0	-1.0	-1.0	-1.0	-1.0	-1.0	-1.0	-1.0	0.0	marker	opened-hand	Open	7	0418
-66072.555	-52034.13	-97164.54	-17711.37	0.0	0.0	0.0	0.0	0.0	0.0	0.0	0.0	0.0	0.0	0.0	0.0	0.0	0.0	145.6551724137931	0.0	-0.01599117	-0.043762095	1.03344462	3.5860999999999996	-1.2055399999999998	-0.12208	3169775.0	1776544729.162174	0.0	1.0	-1.0	-1.0	-1.0	-1.0	-1.0	-1.0	-1.0	-1.0	0.0	marker	opened-hand	Open	7	0418
-65912.895	-52013.61	-97065.26999999999	-17634.465	0.0	0.0	0.0	0.0	0.0	0.0	0.0	0.0	0.0	0.0	0.0	0.0	0.0	0.0	145.6551724137931	0.0	-0.01599117	-0.043762095	1.03344462	3.5860999999999996	-1.2055399999999998	-0.12208	3169776.0	1776544729.166151	0.0	1.0	-1.0	-1.0	-1.0	-1.0	-1.0	-1.0	-1.0	-1.0	0.0	marker	opened-hand	Open	7	0418
-66015.675	-52006.95	-97194.23999999999	-17774.505	0.0	0.0	0.0	0.0	0.0	0.0	0.0	0.0	0.0	0.0	0.0	0.0	0.0	0.0	145.6551724137931	0.0	-0.01599117	-0.043762095	1.03344462	3.5860999999999996	-1.2055399999999998	-0.12208	3169777.0	1776544729.166169	0.0	1.0	-1.0	-1.0	-1.0	-1.0	-1.0	-1.0	-1.0	-1.0	0.0	marker	opened-hand	Open	7	0418
-66069.855	-52008.795	-97213.72499999999	-17777.52	0.0	0.0	0.0	0.0	0.0	0.0	0.0	0.0	0.0	0.0	0.0	0.0	0.0	0.0	145.6551724137931	0.0	-0.01599117	-0.043762095	1.03344462	3.5860999999999996	-1.2055399999999998	-0.12208	3169778.0	1776544729.170076	0.0	1.0	-1.0	-1.0	-1.0	-1.0	-1.0	-1.0	-1.0	-1.0	0.0	marker	opened-hand	Open	7	0418
-66130.56	-52021.17	-97213.185	-17790.344999999998	0.0	0.0	0.0	0.0	0.0	0.0	0.0	0.0	0.0	0.0	0.0	0.0	0.0	0.0	145.6551724137931	0.0	-0.01599117	-0.043762095	1.03344462	3.5860999999999996	-1.2055399999999998	-0.12208	3169779.0	1776544729.170094	0.0	1.0	-1.0	-1.0	-1.0	-1.0	-1.0	-1.0	-1.0	-1.0	0.0	marker	opened-hand	Open	7	0418
-66079.665	-52027.244999999995	-97115.89499999999	-17809.785	0.0	0.0	0.0	0.0	0.0	0.0	0.0	0.0	0.0	0.0	0.0	0.0	0.0	0.0	145.6551724137931	0.0	0.00390624	-0.026794365	1.013608245	0.62566	-0.06104	2.0295799999999997	3169780.0	1776544729.174319	0.0	1.0	-1.0	-1.0	-1.0	-1.0	-1.0	-1.0	-1.0	-1.0	0.0	marker	opened-hand	Open	7	0418
-66111.48	-52038.134999999995	-97389.09	-17841.465	0.0	0.0	0.0	0.0	0.0	0.0	0.0	0.0	0.0	0.0	0.0	0.0	0.0	0.0	145.6551724137931	0.0	0.00390624	-0.026794365	1.013608245	0.62566	-0.06104	2.0295799999999997	3169781.0	1776544729.174338	0.0	1.0	-1.0	-1.0	-1.0	-1.0	-1.0	-1.0	-1.0	-1.0	0.0	marker	opened-hand	Open	7	0418
-65833.83	-52028.954999999994	-97261.73999999999	-17644.005	0.0	0.0	0.0	0.0	0.0	0.0	0.0	0.0	0.0	0.0	0.0	0.0	0.0	0.0	145.6551724137931	0.0	0.00390624	-0.026794365	1.013608245	0.62566	-0.06104	2.0295799999999997	3169782.0	1776544729.178275	0.0	1.0	-1.0	-1.0	-1.0	-1.0	-1.0	-1.0	-1.0	-1.0	0.0	marker	opened-hand	Open	7	0418
-65946.555	-52022.43	-97177.00499999999	-17642.295	0.0	0.0	0.0	0.0	0.0	0.0	0.0	0.0	0.0	0.0	0.0	0.0	0.0	0.0	145.6551724137931	0.0	0.00390624	-0.026794365	1.013608245	0.62566	-0.06104	2.0295799999999997	3169783.0	1776544729.178303	0.0	1.0	-1.0	-1.0	-1.0	-1.0	-1.0	-1.0	-1.0	-1.0	0.0	marker	opened-hand	Open	7	0418
-66127.095	-52034.04	-97303.31999999999	-17770.86	0.0	0.0	0.0	0.0	0.0	0.0	0.0	0.0	0.0	0.0	0.0	0.0	0.0	0.0	145.6551724137931	0.0	0.00390624	-0.026794365	1.013608245	0.62566	-0.06104	2.0295799999999997	3169784.0	1776544729.182113	0.0	1.0	-1.0	-1.0	-1.0	-1.0	-1.0	-1.0	-1.0	-1.0	0.0	marker	opened-hand	Open	7	0418
-66299.76	-52048.979999999996	-97508.79	-18018.27	0.0	0.0	0.0	0.0	0.0	0.0	0.0	0.0	0.0	0.0	0.0	0.0	0.0	0.0	145.6551724137931	0.0	0.00390624	-0.026794365	1.013608245	0.62566	-0.06104	2.0295799999999997	3169785.0	1776544729.182131	0.0	1.0	-1.0	-1.0	-1.0	-1.0	-1.0	-1.0	-1.0	-1.0	0.0	marker	opened-hand	Open	7	0418
-66188.16	-52038.27	-97364.43	-17896.094999999998	0.0	0.0	0.0	0.0	0.0	0.0	0.0	0.0	0.0	0.0	0.0	0.0	0.0	0.0	145.6551724137931	0.0	0.00390624	-0.026794365	1.013608245	0.62566	-0.06104	2.0295799999999997	3169786.0	1776544729.187557	0.0	1.0	-1.0	-1.0	-1.0	-1.0	-1.0	-1.0	-1.0	-1.0	0.0	marker	opened-hand	Open	7	0418
-65997.18	-52032.869999999995	-97166.16	-17676.315	0.0	0.0	0.0	0.0	0.0	0.0	0.0	0.0	0.0	0.0	0.0	0.0	0.0	0.0	145.6551724137931	0.0	0.00390624	-0.026794365	1.013608245	0.62566	-0.06104	2.0295799999999997	3169787.0	1776544729.187576	0.0	1.0	-1.0	-1.0	-1.0	-1.0	-1.0	-1.0	-1.0	-1.0	0.0	marker	opened-hand	Open	7	0418
-65910.19499999999	-52042.454999999994	-97092.315	-17605.44	0.0	0.0	0.0	0.0	0.0	0.0	0.0	0.0	0.0	0.0	0.0	0.0	0.0	0.0	145.6551724137931	0.0	0.00390624	-0.026794365	1.013608245	0.62566	-0.06104	2.0295799999999997	3169788.0	1776544729.190186	0.0	1.0	-1.0	-1.0	-1.0	-1.0	-1.0	-1.0	-1.0	-1.0	0.0	marker	opened-hand	Open	7	0418
-66339.54	-52067.744999999995	-97544.295	-18034.155	0.0	0.0	0.0	0.0	0.0	0.0	0.0	0.0	0.0	0.0	0.0	0.0	0.0	0.0	145.6551724137931	0.0	0.00390624	-0.026794365	1.013608245	0.62566	-0.06104	2.0295799999999997	3169789.0	1776544729.190203	0.0	1.0	-1.0	-1.0	-1.0	-1.0	-1.0	-1.0	-1.0	-1.0	0.0	marker	opened-hand	Open	7	0418
-66374.595	-52057.89	-97533.315	-18043.695	0.0	0.0	0.0	0.0	0.0	0.0	0.0	0.0	0.0	0.0	0.0	0.0	0.0	0.0	145.6551724137931	0.0	0.018249465	-0.053283555	1.011288915	3.6318799999999998	0.59514	-1.8312	3169790.0	1776544729.194206	0.0	1.0	-1.0	-1.0	-1.0	-1.0	-1.0	-1.0	-1.0	-1.0	0.0	marker	opened-hand	Open	7	0418
-66190.545	-52039.935	-97340.355	-17856.945	0.0	0.0	0.0	0.0	0.0	0.0	0.0	0.0	0.0	0.0	0.0	0.0	0.0	0.0	145.6551724137931	0.0	0.018249465	-0.053283555	1.011288915	3.6318799999999998	0.59514	-1.8312	3169791.0	1776544729.194225	0.0	1.0	-1.0	-1.0	-1.0	-1.0	-1.0	-1.0	-1.0	-1.0	0.0	marker	opened-hand	Open	7	0418
-66155.535	-52026.93	-97385.84999999999	-17864.82	0.0	0.0	0.0	0.0	0.0	0.0	0.0	0.0	0.0	0.0	0.0	0.0	0.0	0.0	145.6551724137931	0.0	0.018249465	-0.053283555	1.011288915	3.6318799999999998	0.59514	-1.8312	3169792.0	1776544729.202963	0.0	1.0	-1.0	-1.0	-1.0	-1.0	-1.0	-1.0	-1.0	-1.0	0.0	marker	opened-hand	Open	7	0418
-66177.495	-52011.81	-97370.81999999999	-17853.39	0.0	0.0	0.0	0.0	0.0	0.0	0.0	0.0	0.0	0.0	0.0	0.0	0.0	0.0	145.6551724137931	0.0	0.018249465	-0.053283555	1.011288915	3.6318799999999998	0.59514	-1.8312	3169793.0	1776544729.202983	0.0	1.0	-1.0	-1.0	-1.0	-1.0	-1.0	-1.0	-1.0	-1.0	0.0	marker	opened-hand	Open	7	0418
-66171.78	-52004.384999999995	-97343.595	-17872.515	0.0	0.0	0.0	0.0	0.0	0.0	0.0	0.0	0.0	0.0	0.0	0.0	0.0	0.0	145.6551724137931	0.0	0.018249465	-0.053283555	1.011288915	3.6318799999999998	0.59514	-1.8312	3169794.0	1776544729.203006	0.0	1.0	-1.0	-1.0	-1.0	-1.0	-1.0	-1.0	-1.0	-1.0	0.0	marker	opened-hand	Open	7	0418
-66102.39	-51996.104999999996	-97262.73	-17795.969999999998	0.0	0.0	0.0	0.0	0.0	0.0	0.0	0.0	0.0	0.0	0.0	0.0	0.0	0.0	145.6551724137931	0.0	0.018249465	-0.053283555	1.011288915	3.6318799999999998	0.59514	-1.8312	3169795.0	1776544729.203023	0.0	1.0	-1.0	-1.0	-1.0	-1.0	-1.0	-1.0	-1.0	-1.0	0.0	marker	opened-hand	Open	7	0418
-66016.98	-51997.365	-97199.86499999999	-17705.969999999998	0.0	0.0	0.0	0.0	0.0	0.0	0.0	0.0	0.0	0.0	0.0	0.0	0.0	0.0	145.6551724137931	0.0	0.018249465	-0.053283555	1.011288915	3.6318799999999998	0.59514	-1.8312	3169796.0	1776544729.20626	0.0	1.0	-1.0	-1.0	-1.0	-1.0	-1.0	-1.0	-1.0	-1.0	0.0	marker	opened-hand	Open	7	0418
-66027.465	-51999.255	-97176.87	-17687.745	0.0	0.0	0.0	0.0	0.0	0.0	0.0	0.0	0.0	0.0	0.0	0.0	0.0	0.0	145.6551724137931	0.0	0.018249465	-0.053283555	1.011288915	3.6318799999999998	0.59514	-1.8312	3169797.0	1776544729.206279	0.0	1.0	-1.0	-1.0	-1.0	-1.0	-1.0	-1.0	-1.0	-1.0	0.0	marker	opened-hand	Open	7	0418
-65962.17	-51980.445	-97047.18	-17522.19	0.0	0.0	0.0	0.0	0.0	0.0	0.0	0.0	0.0	0.0	0.0	0.0	0.0	0.0	145.6551724137931	0.0	0.018249465	-0.053283555	1.011288915	3.6318799999999998	0.59514	-1.8312	3169798.0	1776544729.210327	0.0	1.0	-1.0	-1.0	-1.0	-1.0	-1.0	-1.0	-1.0	-1.0	0.0	marker	opened-hand	Open	7	0418
-66075.345	-51985.755	-97206.705	-17640.495	0.0	0.0	0.0	0.0	0.0	0.0	0.0	0.0	0.0	0.0	0.0	0.0	0.0	0.0	145.6551724137931	0.0	0.018249465	-0.053283555	1.011288915	3.6318799999999998	0.59514	-1.8312	3169799.0	1776544729.210346	0.0	1.0	-1.0	-1.0	-1.0	-1.0	-1.0	-1.0	-1.0	-1.0	0.0	marker	opened-hand	Open	7	0418
-66296.43	-52001.64	-97567.29	-18092.969999999998	0.0	0.0	0.0	0.0	0.0	0.0	0.0	0.0	0.0	0.0	0.0	0.0	0.0	0.0	145.6551724137931	0.0	0.008850075	-0.06945783	1.008969585	8.1641	1.2207999999999999	-3.3266799999999996	3169800.0	1776544729.215894	0.0	1.0	-1.0	-1.0	-1.0	-1.0	-1.0	-1.0	-1.0	-1.0	0.0	marker	opened-hand	Open	7	0418
-66108.59999999999	-51980.67	-97380.81	-17975.295	0.0	0.0	0.0	0.0	0.0	0.0	0.0	0.0	0.0	0.0	0.0	0.0	0.0	0.0	145.6551724137931	0.0	0.008850075	-0.06945783	1.008969585	8.1641	1.2207999999999999	-3.3266799999999996	3169801.0	1776544729.215916	0.0	1.0	-1.0	-1.0	-1.0	-1.0	-1.0	-1.0	-1.0	-1.0	0.0	marker	opened-hand	Open	7	0418
-66063.69	-51981.615	-97386.075	-17827.11	0.0	0.0	0.0	0.0	0.0	0.0	0.0	0.0	0.0	0.0	0.0	0.0	0.0	0.0	145.6551724137931	0.0	0.008850075	-0.06945783	1.008969585	8.1641	1.2207999999999999	-3.3266799999999996	3169802.0	1776544729.2187	0.0	1.0	-1.0	-1.0	-1.0	-1.0	-1.0	-1.0	-1.0	-1.0	0.0	marker	opened-hand	Open	7	0418
-66181.995	-51982.155	-97386.795	-17804.745	0.0	0.0	0.0	0.0	0.0	0.0	0.0	0.0	0.0	0.0	0.0	0.0	0.0	0.0	145.6551724137931	0.0	0.008850075	-0.06945783	1.008969585	8.1641	1.2207999999999999	-3.3266799999999996	3169803.0	1776544729.21872	0.0	1.0	-1.0	-1.0	-1.0	-1.0	-1.0	-1.0	-1.0	-1.0	0.0	marker	opened-hand	Open	7	0418
-66313.08	-51993.314999999995	-97449.165	-17903.835	0.0	0.0	0.0	0.0	0.0	0.0	0.0	0.0	0.0	0.0	0.0	0.0	0.0	0.0	145.6551724137931	0.0	0.008850075	-0.06945783	1.008969585	8.1641	1.2207999999999999	-3.3266799999999996	3169804.0	1776544729.224777	0.0	1.0	-1.0	-1.0	-1.0	-1.0	-1.0	-1.0	-1.0	-1.0	0.0	marker	opened-hand	Open	7	0418
-66283.965	-52000.515	-97506.54	-17969.13	0.0	0.0	0.0	0.0	0.0	0.0	0.0	0.0	0.0	0.0	0.0	0.0	0.0	0.0	145.6551724137931	0.0	0.008850075	-0.06945783	1.008969585	8.1641	1.2207999999999999	-3.3266799999999996	3169805.0	1776544729.224796	0.0	1.0	-1.0	-1.0	-1.0	-1.0	-1.0	-1.0	-1.0	-1.0	0.0	marker	opened-hand	Open	7	0418
-66253.455	-52009.244999999995	-97502.48999999999	-17953.065	0.0	0.0	0.0	0.0	0.0	0.0	0.0	0.0	0.0	0.0	0.0	0.0	0.0	0.0	145.6551724137931	0.0	0.008850075	-0.06945783	1.008969585	8.1641	1.2207999999999999	-3.3266799999999996	3169806.0	1776544729.227822	0.0	1.0	-1.0	-1.0	-1.0	-1.0	-1.0	-1.0	-1.0	-1.0	0.0	marker	opened-hand	Open	7	0418
-66320.775	-52018.02	-97465.185	-17923.23	0.0	0.0	0.0	0.0	0.0	0.0	0.0	0.0	0.0	0.0	0.0	0.0	0.0	0.0	145.6551724137931	0.0	0.008850075	-0.06945783	1.008969585	8.1641	1.2207999999999999	-3.3266799999999996	3169807.0	1776544729.227842	0.0	1.0	-1.0	-1.0	-1.0	-1.0	-1.0	-1.0	-1.0	-1.0	0.0	marker	opened-hand	Open	7	0418
-66062.61	-52000.92	-97249.36499999999	-17753.895	0.0	0.0	0.0	0.0	0.0	0.0	0.0	0.0	0.0	0.0	0.0	0.0	0.0	0.0	145.6551724137931	0.0	0.008850075	-0.06945783	1.008969585	8.1641	1.2207999999999999	-3.3266799999999996	3169808.0	1776544729.230387	0.0	1.0	-1.0	-1.0	-1.0	-1.0	-1.0	-1.0	-1.0	-1.0	0.0	marker	opened-hand	Open	7	0418
-65841.39	-52008.119999999995	-97171.37999999999	-17605.934999999998	0.0	0.0	0.0	0.0	0.0	0.0	0.0	0.0	0.0	0.0	0.0	0.0	0.0	0.0	145.6551724137931	0.0	0.008850075	-0.06945783	1.008969585	8.1641	1.2207999999999999	-3.3266799999999996	3169809.0	1776544729.230406	0.0	1.0	-1.0	-1.0	-1.0	-1.0	-1.0	-1.0	-1.0	-1.0	0.0	marker	opened-hand	Open	7	0418
-65955.23999999999	-52024.86	-97286.715	-17712.719999999998	0.0	0.0	0.0	0.0	0.0	0.0	0.0	0.0	0.0	0.0	0.0	0.0	0.0	0.0	145.6551724137931	0.0	-0.005676255	-0.05273424	1.017270345	7.41636	0.7019599999999999	-1.63282	3169810.0	1776544729.237179	0.0	1.0	-1.0	-1.0	-1.0	-1.0	-1.0	-1.0	-1.0	-1.0	0.0	marker	opened-hand	Open	7	0418
-66061.845	-52018.29	-97334.91	-17811.045	0.0	0.0	0.0	0.0	0.0	0.0	0.0	0.0	0.0	0.0	0.0	0.0	0.0	0.0	145.6551724137931	0.0	-0.005676255	-0.05273424	1.017270345	7.41636	0.7019599999999999	-1.63282	3169811.0	1776544729.237198	0.0	1.0	-1.0	-1.0	-1.0	-1.0	-1.0	-1.0	-1.0	-1.0	0.0	marker	opened-hand	Open	7	0418
-66006.9	-52001.505	-97243.47	-17761.454999999998	0.0	0.0	0.0	0.0	0.0	0.0	0.0	0.0	0.0	0.0	0.0	0.0	0.0	0.0	145.6551724137931	0.0	-0.005676255	-0.05273424	1.017270345	7.41636	0.7019599999999999	-1.63282	3169812.0	1776544729.238386	0.0	1.0	-1.0	-1.0	-1.0	-1.0	-1.0	-1.0	-1.0	-1.0	0.0	marker	opened-hand	Open	7	0418
-66049.605	-52002.45	-97118.19	-17688.96	0.0	0.0	0.0	0.0	0.0	0.0	0.0	0.0	0.0	0.0	0.0	0.0	0.0	0.0	145.6551724137931	0.0	-0.005676255	-0.05273424	1.017270345	7.41636	0.7019599999999999	-1.63282	3169813.0	1776544729.238404	0.0	1.0	-1.0	-1.0	-1.0	-1.0	-1.0	-1.0	-1.0	-1.0	0.0	marker	opened-hand	Open	7	0418
-66256.605	-52026.525	-97314.525	-17855.37	0.0	0.0	0.0	0.0	0.0	0.0	0.0	0.0	0.0	0.0	0.0	0.0	0.0	0.0	145.6551724137931	0.0	-0.005676255	-0.05273424	1.017270345	7.41636	0.7019599999999999	-1.63282	3169814.0	1776544729.246377	0.0	1.0	-1.0	-1.0	-1.0	-1.0	-1.0	-1.0	-1.0	-1.0	0.0	marker	opened-hand	Open	7	0418
-66337.245	-52050.645	-97673.44499999999	-18129.375	0.0	0.0	0.0	0.0	0.0	0.0	0.0	0.0	0.0	0.0	0.0	0.0	0.0	0.0	145.6551724137931	0.0	-0.005676255	-0.05273424	1.017270345	7.41636	0.7019599999999999	-1.63282	3169815.0	1776544729.246396	0.0	1.0	-1.0	-1.0	-1.0	-1.0	-1.0	-1.0	-1.0	-1.0	0.0	marker	opened-hand	Open	7	0418
-66136.23	-52033.365	-97480.75499999999	-17899.515	0.0	0.0	0.0	0.0	0.0	0.0	0.0	0.0	0.0	0.0	0.0	0.0	0.0	0.0	145.6551724137931	0.0	-0.005676255	-0.05273424	1.017270345	7.41636	0.7019599999999999	-1.63282	3169816.0	1776544729.246998	0.0	1.0	-1.0	-1.0	-1.0	-1.0	-1.0	-1.0	-1.0	-1.0	0.0	marker	opened-hand	Open	7	0418
-65889.98999999999	-51995.7	-97161.93	-17662.095	0.0	0.0	0.0	0.0	0.0	0.0	0.0	0.0	0.0	0.0	0.0	0.0	0.0	0.0	145.6551724137931	0.0	-0.005676255	-0.05273424	1.017270345	7.41636	0.7019599999999999	-1.63282	3169817.0	1776544729.247015	0.0	1.0	-1.0	-1.0	-1.0	-1.0	-1.0	-1.0	-1.0	-1.0	0.0	marker	opened-hand	Open	7	0418
-66156.39	-51926.265	-97447.185	-17900.64	0.0	0.0	0.0	0.0	0.0	0.0	0.0	0.0	0.0	0.0	0.0	0.0	0.0	0.0	145.6551724137931	0.0	-0.005676255	-0.05273424	1.017270345	7.41636	0.7019599999999999	-1.63282	3169818.0	1776544729.250412	0.0	1.0	-1.0	-1.0	-1.0	-1.0	-1.0	-1.0	-1.0	-1.0	0.0	marker	opened-hand	Open	7	0418
-66285.27	-51875.82	-97518.33	-17933.13	0.0	0.0	0.0	0.0	0.0	0.0	0.0	0.0	0.0	0.0	0.0	0.0	0.0	0.0	145.6551724137931	0.0	-0.005676255	-0.05273424	1.017270345	7.41636	0.7019599999999999	-1.63282	3169819.0	1776544729.25043	0.0	1.0	-1.0	-1.0	-1.0	-1.0	-1.0	-1.0	-1.0	-1.0	0.0	marker	opened-hand	Open	7	0418
-66287.34	-51885.314999999995	-97615.08	-18064.079999999998	0.0	0.0	0.0	0.0	0.0	0.0	0.0	0.0	0.0	0.0	0.0	0.0	0.0	0.0	145.6551724137931	0.0	-0.0085449	-0.03967275	1.02502179	4.56274	-0.18312	1.46496	3169820.0	1776544729.254483	0.0	1.0	-1.0	-1.0	-1.0	-1.0	-1.0	-1.0	-1.0	-1.0	0.0	marker	opened-hand	Open	7	0418
-66220.245	-51897.375	-97469.14499999999	-17939.969999999998	0.0	0.0	0.0	0.0	0.0	0.0	0.0	0.0	0.0	0.0	0.0	0.0	0.0	0.0	145.6551724137931	0.0	-0.0085449	-0.03967275	1.02502179	4.56274	-0.18312	1.46496	3169821.0	1776544729.254503	0.0	1.0	-1.0	-1.0	-1.0	-1.0	-1.0	-1.0	-1.0	-1.0	0.0	marker	opened-hand	Open	7	0418
-66022.11	-51894.45	-97264.70999999999	-17745.614999999998	0.0	0.0	0.0	0.0	0.0	0.0	0.0	0.0	0.0	0.0	0.0	0.0	0.0	0.0	145.6551724137931	0.0	-0.0085449	-0.03967275	1.02502179	4.56274	-0.18312	1.46496	3169822.0	1776544729.258374	0.0	1.0	-1.0	-1.0	-1.0	-1.0	-1.0	-1.0	-1.0	-1.0	0.0	marker	opened-hand	Open	7	0418
-66008.655	-51895.17	-97216.69499999999	-17700.39	0.0	0.0	0.0	0.0	0.0	0.0	0.0	0.0	0.0	0.0	0.0	0.0	0.0	0.0	145.6551724137931	0.0	-0.0085449	-0.03967275	1.02502179	4.56274	-0.18312	1.46496	3169823.0	1776544729.258391	0.0	1.0	-1.0	-1.0	-1.0	-1.0	-1.0	-1.0	-1.0	-1.0	0.0	marker	opened-hand	Open	7	0418
-66058.155	-51888.555	-97152.48	-17634.195	0.0	0.0	0.0	0.0	0.0	0.0	0.0	0.0	0.0	0.0	0.0	0.0	0.0	0.0	145.6551724137931	0.0	-0.0085449	-0.03967275	1.02502179	4.56274	-0.18312	1.46496	3169824.0	1776544729.264475	0.0	1.0	-1.0	-1.0	-1.0	-1.0	-1.0	-1.0	-1.0	-1.0	0.0	marker	opened-hand	Open	7	0418
-66057.66	-51891.75	-97267.815	-17689.545	0.0	0.0	0.0	0.0	0.0	0.0	0.0	0.0	0.0	0.0	0.0	0.0	0.0	0.0	145.6551724137931	0.0	-0.0085449	-0.03967275	1.02502179	4.56274	-0.18312	1.46496	3169825.0	1776544729.264493	0.0	1.0	-1.0	-1.0	-1.0	-1.0	-1.0	-1.0	-1.0	-1.0	0.0	marker	opened-hand	Open	7	0418
-65975.58	-51882.57	-97276.68	-17726.715	0.0	0.0	0.0	0.0	0.0	0.0	0.0	0.0	0.0	0.0	0.0	0.0	0.0	0.0	145.6551724137931	0.0	-0.0085449	-0.03967275	1.02502179	4.56274	-0.18312	1.46496	3169826.0	1776544729.266402	0.0	1.0	-1.0	-1.0	-1.0	-1.0	-1.0	-1.0	-1.0	-1.0	0.0	marker	opened-hand	Open	7	0418
-66039.525	-51876.585	-97209.495	-17735.94	0.0	0.0	0.0	0.0	0.0	0.0	0.0	0.0	0.0	0.0	0.0	0.0	0.0	0.0	145.6551724137931	0.0	-0.0085449	-0.03967275	1.02502179	4.56274	-0.18312	1.46496	3169827.0	1776544729.26642	0.0	1.0	-1.0	-1.0	-1.0	-1.0	-1.0	-1.0	-1.0	-1.0	0.0	marker	opened-hand	Open	7	0418
-66097.665	-51880.68	-97324.785	-17818.469999999998	0.0	0.0	0.0	0.0	0.0	0.0	0.0	0.0	0.0	0.0	0.0	0.0	0.0	0.0	145.6551724137931	0.0	-0.0085449	-0.03967275	1.02502179	4.56274	-0.18312	1.46496	3169828.0	1776544729.270541	0.0	1.0	-1.0	-1.0	-1.0	-1.0	-1.0	-1.0	-1.0	-1.0	0.0	marker	opened-hand	Open	7	0418
-66309.525	-51905.475	-97598.87999999999	-18068.715	0.0	0.0	0.0	0.0	0.0	0.0	0.0	0.0	0.0	0.0	0.0	0.0	0.0	0.0	145.6551724137931	0.0	-0.0085449	-0.03967275	1.02502179	4.56274	-0.18312	1.46496	3169829.0	1776544729.270558	0.0	1.0	-1.0	-1.0	-1.0	-1.0	-1.0	-1.0	-1.0	-1.0	0.0	marker	opened-hand	Open	7	0418
-66081.42	-51896.835	-97302.78	-17837.28	0.0	0.0	0.0	0.0	0.0	0.0	0.0	0.0	0.0	0.0	0.0	0.0	0.0	0.0	145.6551724137931	0.0	0.00207519	-0.02636712	1.016659995	1.31236	-0.12208	-0.04578	3169830.0	1776544729.274565	0.0	1.0	-1.0	-1.0	-1.0	-1.0	-1.0	-1.0	-1.0	-1.0	0.0	marker	opened-hand	Open	7	0418
-65923.73999999999	-51884.145	-97098.48	-17619.975	0.0	0.0	0.0	0.0	0.0	0.0	0.0	0.0	0.0	0.0	0.0	0.0	0.0	0.0	145.6551724137931	0.0	0.00207519	-0.02636712	1.016659995	1.31236	-0.12208	-0.04578	3169831.0	1776544729.274583	0.0	1.0	-1.0	-1.0	-1.0	-1.0	-1.0	-1.0	-1.0	-1.0	0.0	marker	opened-hand	Open	7	0418
-66227.13	-51896.159999999996	-97384.31999999999	-17920.934999999998	0.0	0.0	0.0	0.0	0.0	0.0	0.0	0.0	0.0	0.0	0.0	0.0	0.0	0.0	145.6551724137931	0.0	0.00207519	-0.02636712	1.016659995	1.31236	-0.12208	-0.04578	3169832.0	1776544729.278535	0.0	1.0	-1.0	-1.0	-1.0	-1.0	-1.0	-1.0	-1.0	-1.0	0.0	marker	opened-hand	Open	7	0418
-66164.625	-51894.81	-97480.305	-17953.245	0.0	0.0	0.0	0.0	0.0	0.0	0.0	0.0	0.0	0.0	0.0	0.0	0.0	0.0	145.6551724137931	0.0	0.00207519	-0.02636712	1.016659995	1.31236	-0.12208	-0.04578	3169833.0	1776544729.278552	0.0	1.0	-1.0	-1.0	-1.0	-1.0	-1.0	-1.0	-1.0	-1.0	0.0	marker	opened-hand	Open	7	0418
-66035.43	-51887.204999999994	-97426.98	-17806.364999999998	0.0	0.0	0.0	0.0	0.0	0.0	0.0	0.0	0.0	0.0	0.0	0.0	0.0	0.0	145.6551724137931	0.0	0.00207519	-0.02636712	1.016659995	1.31236	-0.12208	-0.04578	3169834.0	1776544729.282569	0.0	1.0	-1.0	-1.0	-1.0	-1.0	-1.0	-1.0	-1.0	-1.0	0.0	marker	opened-hand	Open	7	0418
-66027.78	-51879.195	-97396.37999999999	-17785.53	0.0	0.0	0.0	0.0	0.0	0.0	0.0	0.0	0.0	0.0	0.0	0.0	0.0	0.0	145.6551724137931	0.0	0.00207519	-0.02636712	1.016659995	1.31236	-0.12208	-0.04578	3169835.0	1776544729.282587	0.0	1.0	-1.0	-1.0	-1.0	-1.0	-1.0	-1.0	-1.0	-1.0	0.0	marker	opened-hand	Open	7	0418
-65949.66	-51872.939999999995	-97227.98999999999	-17705.25	0.0	0.0	0.0	0.0	0.0	0.0	0.0	0.0	0.0	0.0	0.0	0.0	0.0	0.0	145.6551724137931	0.0	0.00207519	-0.02636712	1.016659995	1.31236	-0.12208	-0.04578	3169836.0	1776544729.286606	0.0	1.0	-1.0	-1.0	-1.0	-1.0	-1.0	-1.0	-1.0	-1.0	0.0	marker	opened-hand	Open	7	0418
-66131.505	-51885.9	-97365.735	-17769.015	0.0	0.0	0.0	0.0	0.0	0.0	0.0	0.0	0.0	0.0	0.0	0.0	0.0	0.0	145.6551724137931	0.0	0.00207519	-0.02636712	1.016659995	1.31236	-0.12208	-0.04578	3169837.0	1776544729.286629	0.0	1.0	-1.0	-1.0	-1.0	-1.0	-1.0	-1.0	-1.0	-1.0	0.0	marker	opened-hand	Open	7	0418
-66410.91	-51921.585	-97762.59	-18163.215	0.0	0.0	0.0	0.0	0.0	0.0	0.0	0.0	0.0	0.0	0.0	0.0	0.0	0.0	145.6551724137931	0.0	0.00207519	-0.02636712	1.016659995	1.31236	-0.12208	-0.04578	3169838.0	1776544729.29062	0.0	1.0	-1.0	-1.0	-1.0	-1.0	-1.0	-1.0	-1.0	-1.0	0.0	marker	opened-hand	Open	7	0418
-66325.31999999999	-51937.38	-97648.83	-18045.495	0.0	0.0	0.0	0.0	0.0	0.0	0.0	0.0	0.0	0.0	0.0	0.0	0.0	0.0	145.6551724137931	0.0	0.00207519	-0.02636712	1.016659995	1.31236	-0.12208	-0.04578	3169839.0	1776544729.29064	0.0	1.0	-1.0	-1.0	-1.0	-1.0	-1.0	-1.0	-1.0	-1.0	0.0	marker	opened-hand	Open	7	0418
-66082.31999999999	-51928.92	-97341.3	-17732.655	0.0	0.0	0.0	0.0	0.0	0.0	0.0	0.0	0.0	0.0	0.0	0.0	0.0	0.0	145.6551724137931	0.0	0.01599117	-0.028442310000000002	1.01708724	-0.21364	0.3815	1.12924	3169840.0	1776544729.296119	0.0	1.0	-1.0	-1.0	-1.0	-1.0	-1.0	-1.0	-1.0	-1.0	0.0	marker	opened-hand	Open	7	0418
-66052.17	-51913.619999999995	-97327.665	-17791.649999999998	0.0	0.0	0.0	0.0	0.0	0.0	0.0	0.0	0.0	0.0	0.0	0.0	0.0	0.0	145.6551724137931	0.0	0.01599117	-0.028442310000000002	1.01708724	-0.21364	0.3815	1.12924	3169841.0	1776544729.296138	0.0	1.0	-1.0	-1.0	-1.0	-1.0	-1.0	-1.0	-1.0	-1.0	0.0	marker	opened-hand	Open	7	0418
-66003.39	-51891.75	-97207.965	-17679.555	0.0	0.0	0.0	0.0	0.0	0.0	0.0	0.0	0.0	0.0	0.0	0.0	0.0	0.0	145.6551724137931	0.0	0.01599117	-0.028442310000000002	1.01708724	-0.21364	0.3815	1.12924	3169842.0	1776544729.298613	0.0	1.0	-1.0	-1.0	-1.0	-1.0	-1.0	-1.0	-1.0	-1.0	0.0	marker	opened-hand	Open	7	0418
-66120.93	-51893.145	-97275.735	-17757.09	0.0	0.0	0.0	0.0	0.0	0.0	0.0	0.0	0.0	0.0	0.0	0.0	0.0	0.0	145.6551724137931	0.0	0.01599117	-0.028442310000000002	1.01708724	-0.21364	0.3815	1.12924	3169843.0	1776544729.298632	0.0	1.0	-1.0	-1.0	-1.0	-1.0	-1.0	-1.0	-1.0	-1.0	0.0	marker	opened-hand	Open	7	0418
-66207.06	-51894.225	-97408.8	-17878.95	0.0	0.0	0.0	0.0	0.0	0.0	0.0	0.0	0.0	0.0	0.0	0.0	0.0	0.0	145.6551724137931	0.0	0.01599117	-0.028442310000000002	1.01708724	-0.21364	0.3815	1.12924	3169844.0	1776544729.305638	0.0	1.0	-1.0	-1.0	-1.0	-1.0	-1.0	-1.0	-1.0	-1.0	0.0	marker	opened-hand	Open	7	0418
-66096.98999999999	-51896.7	-97444.305	-17859.87	0.0	0.0	0.0	0.0	0.0	0.0	0.0	0.0	0.0	0.0	0.0	0.0	0.0	0.0	145.6551724137931	0.0	0.01599117	-0.028442310000000002	1.01708724	-0.21364	0.3815	1.12924	3169845.0	1776544729.305654	0.0	1.0	-1.0	-1.0	-1.0	-1.0	-1.0	-1.0	-1.0	-1.0	0.0	marker	opened-hand	Open	7	0418
-66013.47	-51905.7	-97330.00499999999	-17752.14	0.0	0.0	0.0	0.0	0.0	0.0	0.0	0.0	0.0	0.0	0.0	0.0	0.0	0.0	145.6551724137931	0.0	0.01599117	-0.028442310000000002	1.01708724	-0.21364	0.3815	1.12924	3169846.0	1776544729.306471	0.0	1.0	-1.0	-1.0	-1.0	-1.0	-1.0	-1.0	-1.0	-1.0	0.0	marker	opened-hand	Open	7	0418
-65914.38	-51907.275	-97192.34999999999	-17668.395	0.0	0.0	0.0	0.0	0.0	0.0	0.0	0.0	0.0	0.0	0.0	0.0	0.0	0.0	145.6551724137931	0.0	0.01599117	-0.028442310000000002	1.01708724	-0.21364	0.3815	1.12924	3169847.0	1776544729.306482	0.0	1.0	-1.0	-1.0	-1.0	-1.0	-1.0	-1.0	-1.0	-1.0	0.0	marker	opened-hand	Open	7	0418
-65926.395	-51909.704999999994	-97174.305	-17592.66	0.0	0.0	0.0	0.0	0.0	0.0	0.0	0.0	0.0	0.0	0.0	0.0	0.0	0.0	145.6551724137931	0.0	0.01599117	-0.028442310000000002	1.01708724	-0.21364	0.3815	1.12924	3169848.0	1776544729.310737	0.0	1.0	-1.0	-1.0	-1.0	-1.0	-1.0	-1.0	-1.0	-1.0	0.0	marker	opened-hand	Open	7	0418
-66270.78	-51925.95	-97484.58	-17937.675	0.0	0.0	0.0	0.0	0.0	0.0	0.0	0.0	0.0	0.0	0.0	0.0	0.0	0.0	145.6551724137931	0.0	0.01599117	-0.028442310000000002	1.01708724	-0.21364	0.3815	1.12924	3169849.0	1776544729.310746	0.0	1.0	-1.0	-1.0	-1.0	-1.0	-1.0	-1.0	-1.0	-1.0	0.0	marker	opened-hand	Open	7	0418
-66338.235	-51924.555	-97729.785	-18179.55	0.0	0.0	0.0	0.0	0.0	0.0	0.0	0.0	0.0	0.0	0.0	0.0	0.0	0.0	145.6551724137931	0.0	0.013366665	-0.05273424	1.0120823700000001	1.78542	0.19838	-1.77016	3169850.0	1776544729.31474	0.0	1.0	-1.0	-1.0	-1.0	-1.0	-1.0	-1.0	-1.0	-1.0	0.0	marker	opened-hand	Open	7	0418
-66280.36499999999	-51905.204999999994	-97589.11499999999	-18031.59	0.0	0.0	0.0	0.0	0.0	0.0	0.0	0.0	0.0	0.0	0.0	0.0	0.0	0.0	145.6551724137931	0.0	0.013366665	-0.05273424	1.0120823700000001	1.78542	0.19838	-1.77016	3169851.0	1776544729.314748	0.0	1.0	-1.0	-1.0	-1.0	-1.0	-1.0	-1.0	-1.0	-1.0	0.0	marker	opened-hand	Open	7	0418
-66246.435	-51899.354999999996	-97455.23999999999	-17919.315	0.0	0.0	0.0	0.0	0.0	0.0	0.0	0.0	0.0	0.0	0.0	0.0	0.0	0.0	145.6551724137931	0.0	0.013366665	-0.05273424	1.0120823700000001	1.78542	0.19838	-1.77016	3169852.0	1776544729.320872	0.0	1.0	-1.0	-1.0	-1.0	-1.0	-1.0	-1.0	-1.0	-1.0	0.0	marker	opened-hand	Open	7	0418
-65971.665	-51881.04	-97231.23	-17676.405	0.0	0.0	0.0	0.0	0.0	0.0	0.0	0.0	0.0	0.0	0.0	0.0	0.0	0.0	145.6551724137931	0.0	0.013366665	-0.05273424	1.0120823700000001	1.78542	0.19838	-1.77016	3169853.0	1776544729.320882	0.0	1.0	-1.0	-1.0	-1.0	-1.0	-1.0	-1.0	-1.0	-1.0	0.0	marker	opened-hand	Open	7	0418
-66154.72499999999	-51901.695	-97526.655	-17917.245	0.0	0.0	0.0	0.0	0.0	0.0	0.0	0.0	0.0	0.0	0.0	0.0	0.0	0.0	145.6551724137931	0.0	0.013366665	-0.05273424	1.0120823700000001	1.78542	0.19838	-1.77016	3169854.0	1776544729.32389	0.0	1.0	-1.0	-1.0	-1.0	-1.0	-1.0	-1.0	-1.0	-1.0	0.0	marker	opened-hand	Open	7	0418
-66030.075	-51903.585	-97411.5	-17845.515	0.0	0.0	0.0	0.0	0.0	0.0	0.0	0.0	0.0	0.0	0.0	0.0	0.0	0.0	145.6551724137931	0.0	0.013366665	-0.05273424	1.0120823700000001	1.78542	0.19838	-1.77016	3169855.0	1776544729.3239	0.0	1.0	-1.0	-1.0	-1.0	-1.0	-1.0	-1.0	-1.0	-1.0	0.0	marker	opened-hand	Open	7	0418
-66050.19	-51895.079999999994	-97242.3	-17739.719999999998	0.0	0.0	0.0	0.0	0.0	0.0	0.0	0.0	0.0	0.0	0.0	0.0	0.0	0.0	145.6551724137931	0.0	0.013366665	-0.05273424	1.0120823700000001	1.78542	0.19838	-1.77016	3169856.0	1776544729.326906	0.0	1.0	-1.0	-1.0	-1.0	-1.0	-1.0	-1.0	-1.0	-1.0	0.0	marker	opened-hand	Open	7	0418
-66082.36499999999	-51881.715	-97212.555	-17792.235	0.0	0.0	0.0	0.0	0.0	0.0	0.0	0.0	0.0	0.0	0.0	0.0	0.0	0.0	145.6551724137931	0.0	0.013366665	-0.05273424	1.0120823700000001	1.78542	0.19838	-1.77016	3169857.0	1776544729.326918	0.0	1.0	-1.0	-1.0	-1.0	-1.0	-1.0	-1.0	-1.0	-1.0	0.0	marker	opened-hand	Open	7	0418
-65935.44	-51856.875	-97141.095	-17628.3	0.0	0.0	0.0	0.0	0.0	0.0	0.0	0.0	0.0	0.0	0.0	0.0	0.0	0.0	145.6551724137931	0.0	0.013366665	-0.05273424	1.0120823700000001	1.78542	0.19838	-1.77016	3169858.0	1776544729.330764	0.0	1.0	-1.0	-1.0	-1.0	-1.0	-1.0	-1.0	-1.0	-1.0	0.0	marker	opened-hand	Open	7	0418
-66004.245	-51853.68	-97387.33499999999	-17736.03	0.0	0.0	0.0	0.0	0.0	0.0	0.0	0.0	0.0	0.0	0.0	0.0	0.0	0.0	145.6551724137931	0.0	0.013366665	-0.05273424	1.0120823700000001	1.78542	0.19838	-1.77016	3169859.0	1776544729.330782	0.0	1.0	-1.0	-1.0	-1.0	-1.0	-1.0	-1.0	-1.0	-1.0	0.0	marker	opened-hand	Open	7	0418
-66176.505	-51862.14	-97623.81	-17914.184999999998	0.0	0.0	0.0	0.0	0.0	0.0	0.0	0.0	0.0	0.0	0.0	0.0	0.0	0.0	145.6551724137931	0.0	0.00317382	-0.053771835000000004	1.02074934	3.4792799999999997	0.06104	-1.2818399999999999	3169860.0	1776544729.334681	0.0	1.0	-1.0	-1.0	-1.0	-1.0	-1.0	-1.0	-1.0	-1.0	0.0	marker	opened-hand	Open	7	0418
-66221.28	-51862.454999999994	-97547.12999999999	-17868.825	0.0	0.0	0.0	0.0	0.0	0.0	0.0	0.0	0.0	0.0	0.0	0.0	0.0	0.0	145.6551724137931	0.0	0.00317382	-0.053771835000000004	1.02074934	3.4792799999999997	0.06104	-1.2818399999999999	3169861.0	1776544729.3347	0.0	1.0	-1.0	-1.0	-1.0	-1.0	-1.0	-1.0	-1.0	-1.0	0.0	marker	opened-hand	Open	7	0418
-66032.45999999999	-51850.755	-97275.33	-17659.395	0.0	0.0	0.0	0.0	0.0	0.0	0.0	0.0	0.0	0.0	0.0	0.0	0.0	0.0	145.6551724137931	0.0	0.00317382	-0.053771835000000004	1.02074934	3.4792799999999997	0.06104	-1.2818399999999999	3169862.0	1776544729.338993	0.0	1.0	-1.0	-1.0	-1.0	-1.0	-1.0	-1.0	-1.0	-1.0	0.0	marker	opened-hand	Open	7	0418
-66054.06	-51865.02	-97282.305	-17695.215	0.0	0.0	0.0	0.0	0.0	0.0	0.0	0.0	0.0	0.0	0.0	0.0	0.0	0.0	145.6551724137931	0.0	0.00317382	-0.053771835000000004	1.02074934	3.4792799999999997	0.06104	-1.2818399999999999	3169863.0	1776544729.339011	0.0	1.0	-1.0	-1.0	-1.0	-1.0	-1.0	-1.0	-1.0	-1.0	0.0	marker	opened-hand	Open	7	0418
-66265.785	-51882.795	-97588.53	-18048.375	0.0	0.0	0.0	0.0	0.0	0.0	0.0	0.0	0.0	0.0	0.0	0.0	0.0	0.0	145.6551724137931	0.0	0.00317382	-0.053771835000000004	1.02074934	3.4792799999999997	0.06104	-1.2818399999999999	3169864.0	1776544729.344694	0.0	1.0	-1.0	-1.0	-1.0	-1.0	-1.0	-1.0	-1.0	-1.0	0.0	marker	opened-hand	Open	7	0418
-66260.52	-51876.45	-97640.055	-18077.445	0.0	0.0	0.0	0.0	0.0	0.0	0.0	0.0	0.0	0.0	0.0	0.0	0.0	0.0	145.6551724137931	0.0	0.00317382	-0.053771835000000004	1.02074934	3.4792799999999997	0.06104	-1.2818399999999999	3169865.0	1776544729.344712	0.0	1.0	-1.0	-1.0	-1.0	-1.0	-1.0	-1.0	-1.0	-1.0	0.0	marker	opened-hand	Open	7	0418
-66139.605	-51858.72	-97520.22	-17944.739999999998	0.0	0.0	0.0	0.0	0.0	0.0	0.0	0.0	0.0	0.0	0.0	0.0	0.0	0.0	145.6551724137931	0.0	0.00317382	-0.053771835000000004	1.02074934	3.4792799999999997	0.06104	-1.2818399999999999	3169866.0	1776544729.346944	0.0	1.0	-1.0	-1.0	-1.0	-1.0	-1.0	-1.0	-1.0	-1.0	0.0	marker	opened-hand	Open	7	0418
-66117.825	-51842.564999999995	-97476.61499999999	-17863.11	0.0	0.0	0.0	0.0	0.0	0.0	0.0	0.0	0.0	0.0	0.0	0.0	0.0	0.0	145.6551724137931	0.0	0.00317382	-0.053771835000000004	1.02074934	3.4792799999999997	0.06104	-1.2818399999999999	3169867.0	1776544729.346961	0.0	1.0	-1.0	-1.0	-1.0	-1.0	-1.0	-1.0	-1.0	-1.0	0.0	marker	opened-hand	Open	7	0418
-66053.295	-51833.384999999995	-97383.105	-17767.395	0.0	0.0	0.0	0.0	0.0	0.0	0.0	0.0	0.0	0.0	0.0	0.0	0.0	0.0	145.6551724137931	0.0	0.00317382	-0.053771835000000004	1.02074934	3.4792799999999997	0.06104	-1.2818399999999999	3169868.0	1776544729.350692	0.0	1.0	-1.0	-1.0	-1.0	-1.0	-1.0	-1.0	-1.0	-1.0	0.0	marker	opened-hand	Open	7	0418
-66120.795	-51846.21	-97395.84	-17787.105	0.0	0.0	0.0	0.0	0.0	0.0	0.0	0.0	0.0	0.0	0.0	0.0	0.0	0.0	145.6551724137931	0.0	0.00317382	-0.053771835000000004	1.02074934	3.4792799999999997	0.06104	-1.2818399999999999	3169869.0	1776544729.350709	0.0	1.0	-1.0	-1.0	-1.0	-1.0	-1.0	-1.0	-1.0	-1.0	0.0	marker	opened-hand	Open	7	0418
-66065.84999999999	-51845.759999999995	-97337.11499999999	-17781.075	0.0	0.0	0.0	0.0	0.0	0.0	0.0	0.0	0.0	0.0	0.0	0.0	0.0	0.0	145.6551724137931	0.0	-0.011657685000000001	-0.03564444	1.021054515	1.2818399999999999	-0.33571999999999996	-0.51884	3169870.0	1776544729.354826	0.0	1.0	-1.0	-1.0	-1.0	-1.0	-1.0	-1.0	-1.0	-1.0	0.0	marker	opened-hand	Open	7	0418
-66132.18	-51855.479999999996	-97411.36499999999	-17843.175	0.0	0.0	0.0	0.0	0.0	0.0	0.0	0.0	0.0	0.0	0.0	0.0	0.0	0.0	145.6551724137931	0.0	-0.011657685000000001	-0.03564444	1.021054515	1.2818399999999999	-0.33571999999999996	-0.51884	3169871.0	1776544729.354847	0.0	1.0	-1.0	-1.0	-1.0	-1.0	-1.0	-1.0	-1.0	-1.0	0.0	marker	opened-hand	Open	7	0418
-66193.065	-51881.445	-97545.015	-17947.53	0.0	0.0	0.0	0.0	0.0	0.0	0.0	0.0	0.0	0.0	0.0	0.0	0.0	0.0	145.6551724137931	0.0	-0.011657685000000001	-0.03564444	1.021054515	1.2818399999999999	-0.33571999999999996	-0.51884	3169872.0	1776544729.358769	0.0	1.0	-1.0	-1.0	-1.0	-1.0	-1.0	-1.0	-1.0	-1.0	0.0	marker	opened-hand	Open	7	0418
-66069.18	-51916.725	-97431.12	-17853.66	0.0	0.0	0.0	0.0	0.0	0.0	0.0	0.0	0.0	0.0	0.0	0.0	0.0	0.0	145.6551724137931	0.0	-0.011657685000000001	-0.03564444	1.021054515	1.2818399999999999	-0.33571999999999996	-0.51884	3169873.0	1776544729.358787	0.0	1.0	-1.0	-1.0	-1.0	-1.0	-1.0	-1.0	-1.0	-1.0	0.0	marker	opened-hand	Open	7	0418
-66066.56999999999	-51916.814999999995	-97303.185	-17713.62	0.0	0.0	0.0	0.0	0.0	0.0	0.0	0.0	0.0	0.0	0.0	0.0	0.0	0.0	145.6551724137931	0.0	-0.011657685000000001	-0.03564444	1.021054515	1.2818399999999999	-0.33571999999999996	-0.51884	3169874.0	1776544729.362862	0.0	1.0	-1.0	-1.0	-1.0	-1.0	-1.0	-1.0	-1.0	-1.0	0.0	marker	opened-hand	Open	7	0418
-65996.595	-51905.384999999995	-97294.185	-17677.71	0.0	0.0	0.0	0.0	0.0	0.0	0.0	0.0	0.0	0.0	0.0	0.0	0.0	0.0	145.6551724137931	0.0	-0.011657685000000001	-0.03564444	1.021054515	1.2818399999999999	-0.33571999999999996	-0.51884	3169875.0	1776544729.362882	0.0	1.0	-1.0	-1.0	-1.0	-1.0	-1.0	-1.0	-1.0	-1.0	0.0	marker	opened-hand	Open	7	0418
-65814.075	-51888.015	-97116.345	-17489.114999999998	0.0	0.0	0.0	0.0	0.0	0.0	0.0	0.0	0.0	0.0	0.0	0.0	0.0	0.0	145.6551724137931	0.0	-0.011657685000000001	-0.03564444	1.021054515	1.2818399999999999	-0.33571999999999996	-0.51884	3169876.0	1776544729.369222	0.0	1.0	-1.0	-1.0	-1.0	-1.0	-1.0	-1.0	-1.0	-1.0	0.0	marker	opened-hand	Open	7	0418
-65922.93	-51891.795	-97221.465	-17631.675	0.0	0.0	0.0	0.0	0.0	0.0	0.0	0.0	0.0	0.0	0.0	0.0	0.0	0.0	145.6551724137931	0.0	-0.011657685000000001	-0.03564444	1.021054515	1.2818399999999999	-0.33571999999999996	-0.51884	3169877.0	1776544729.369239	0.0	1.0	-1.0	-1.0	-1.0	-1.0	-1.0	-1.0	-1.0	-1.0	0.0	marker	opened-hand	Open	7	0418
-66219.97499999999	-51902.415	-97508.295	-17989.155	0.0	0.0	0.0	0.0	0.0	0.0	0.0	0.0	0.0	0.0	0.0	0.0	0.0	0.0	145.6551724137931	0.0	-0.011657685000000001	-0.03564444	1.021054515	1.2818399999999999	-0.33571999999999996	-0.51884	3169878.0	1776544729.372592	0.0	1.0	-1.0	-1.0	-1.0	-1.0	-1.0	-1.0	-1.0	-1.0	0.0	marker	opened-hand	Open	7	0418
-66255.705	-51905.79	-97510.72499999999	-18052.785	0.0	0.0	0.0	0.0	0.0	0.0	0.0	0.0	0.0	0.0	0.0	0.0	0.0	0.0	145.6551724137931	0.0	-0.011657685000000001	-0.03564444	1.021054515	1.2818399999999999	-0.33571999999999996	-0.51884	3169879.0	1776544729.372609	0.0	1.0	-1.0	-1.0	-1.0	-1.0	-1.0	-1.0	-1.0	-1.0	0.0	marker	opened-hand	Open	7	0418
-66248.055	-51915.06	-97593.66	-18008.73	0.0	0.0	0.0	0.0	0.0	0.0	0.0	0.0	0.0	0.0	0.0	0.0	0.0	0.0	145.6551724137931	0.0	-0.00305175	-0.031433025	1.01391342	1.72438	-0.18312	0.6409199999999999	3169880.0	1776544729.374971	0.0	1.0	-1.0	-1.0	-1.0	-1.0	-1.0	-1.0	-1.0	-1.0	0.0	marker	opened-hand	Open	7	0418
-65968.38	-51903.314999999995	-97414.785	-17756.37	0.0	0.0	0.0	0.0	0.0	0.0	0.0	0.0	0.0	0.0	0.0	0.0	0.0	0.0	145.6551724137931	0.0	-0.00305175	-0.031433025	1.01391342	1.72438	-0.18312	0.6409199999999999	3169881.0	1776544729.374988	0.0	1.0	-1.0	-1.0	-1.0	-1.0	-1.0	-1.0	-1.0	-1.0	0.0	marker	opened-hand	Open	7	0418
-65907.63	-51895.079999999994	-97280.055	-17669.34	0.0	0.0	0.0	0.0	0.0	0.0	0.0	0.0	0.0	0.0	0.0	0.0	0.0	0.0	145.6551724137931	0.0	-0.00305175	-0.031433025	1.01391342	1.72438	-0.18312	0.6409199999999999	3169882.0	1776544729.378832	0.0	1.0	-1.0	-1.0	-1.0	-1.0	-1.0	-1.0	-1.0	-1.0	0.0	marker	opened-hand	Open	7	0418
-66073.23	-51900.479999999996	-97405.92	-17800.829999999998	0.0	0.0	0.0	0.0	0.0	0.0	0.0	0.0	0.0	0.0	0.0	0.0	0.0	0.0	145.6551724137931	0.0	-0.00305175	-0.031433025	1.01391342	1.72438	-0.18312	0.6409199999999999	3169883.0	1776544729.37885	0.0	1.0	-1.0	-1.0	-1.0	-1.0	-1.0	-1.0	-1.0	-1.0	0.0	marker	opened-hand	Open	7	0418
-66065.715	-51896.43	-97472.83499999999	-17880.434999999998	0.0	0.0	0.0	0.0	0.0	0.0	0.0	0.0	0.0	0.0	0.0	0.0	0.0	0.0	145.6551724137931	0.0	-0.00305175	-0.031433025	1.01391342	1.72438	-0.18312	0.6409199999999999	3169884.0	1776544729.389341	0.0	1.0	-1.0	-1.0	-1.0	-1.0	-1.0	-1.0	-1.0	-1.0	0.0	marker	opened-hand	Open	7	0418
-66190.59	-51907.14	-97490.16	-17867.565	0.0	0.0	0.0	0.0	0.0	0.0	0.0	0.0	0.0	0.0	0.0	0.0	0.0	0.0	145.6551724137931	0.0	-0.00305175	-0.031433025	1.01391342	1.72438	-0.18312	0.6409199999999999	3169885.0	1776544729.389361	0.0	1.0	-1.0	-1.0	-1.0	-1.0	-1.0	-1.0	-1.0	-1.0	0.0	marker	opened-hand	Open	7	0418
-66194.325	-51905.204999999994	-97549.01999999999	-17920.62	0.0	0.0	0.0	0.0	0.0	0.0	0.0	0.0	0.0	0.0	0.0	0.0	0.0	0.0	145.6551724137931	0.0	-0.00305175	-0.031433025	1.01391342	1.72438	-0.18312	0.6409199999999999	3169886.0	1776544729.391546	0.0	1.0	-1.0	-1.0	-1.0	-1.0	-1.0	-1.0	-1.0	-1.0	0.0	marker	opened-hand	Open	7	0418
-66083.985	-51888.465	-97506.315	-17889.39	0.0	0.0	0.0	0.0	0.0	0.0	0.0	0.0	0.0	0.0	0.0	0.0	0.0	0.0	145.6551724137931	0.0	-0.00305175	-0.031433025	1.01391342	1.72438	-0.18312	0.6409199999999999	3169887.0	1776544729.391564	0.0	1.0	-1.0	-1.0	-1.0	-1.0	-1.0	-1.0	-1.0	-1.0	0.0	marker	opened-hand	Open	7	0418
-66080.655	-51895.215	-97415.14499999999	-17836.695	0.0	0.0	0.0	0.0	0.0	0.0	0.0	0.0	0.0	0.0	0.0	0.0	0.0	0.0	145.6551724137931	0.0	-0.00305175	-0.031433025	1.01391342	1.72438	-0.18312	0.6409199999999999	3169888.0	1776544729.391589	0.0	1.0	-1.0	-1.0	-1.0	-1.0	-1.0	-1.0	-1.0	-1.0	0.0	marker	opened-hand	Open	7	0418
-66089.295	-51902.775	-97392.69	-17842.95	0.0	0.0	0.0	0.0	0.0	0.0	0.0	0.0	0.0	0.0	0.0	0.0	0.0	0.0	145.6551724137931	0.0	-0.00305175	-0.031433025	1.01391342	1.72438	-0.18312	0.6409199999999999	3169889.0	1776544729.391606	0.0	1.0	-1.0	-1.0	-1.0	-1.0	-1.0	-1.0	-1.0	-1.0	0.0	marker	opened-hand	Open	7	0418
-65969.235	-51890.085	-97311.06	-17667.809999999998	0.0	0.0	0.0	0.0	0.0	0.0	0.0	0.0	0.0	0.0	0.0	0.0	0.0	0.0	145.6551724137931	0.0	0.010681125	-0.040222065	1.01012925	0.85456	0.9156	-0.2289	3169890.0	1776544729.394919	0.0	1.0	-1.0	-1.0	-1.0	-1.0	-1.0	-1.0	-1.0	-1.0	0.0	marker	opened-hand	Open	7	0418
-66114.18	-51897.06	-97394.805	-17728.11	0.0	0.0	0.0	0.0	0.0	0.0	0.0	0.0	0.0	0.0	0.0	0.0	0.0	0.0	145.6551724137931	0.0	0.010681125	-0.040222065	1.01012925	0.85456	0.9156	-0.2289	3169891.0	1776544729.394939	0.0	1.0	-1.0	-1.0	-1.0	-1.0	-1.0	-1.0	-1.0	-1.0	0.0	marker	opened-hand	Open	7	0418
-66152.745	-51893.505	-97455.15	-17806.32	0.0	0.0	0.0	0.0	0.0	0.0	0.0	0.0	0.0	0.0	0.0	0.0	0.0	0.0	145.6551724137931	0.0	0.010681125	-0.040222065	1.01012925	0.85456	0.9156	-0.2289	3169892.0	1776544729.39888	0.0	1.0	-1.0	-1.0	-1.0	-1.0	-1.0	-1.0	-1.0	-1.0	0.0	marker	opened-hand	Open	7	0418
-65924.86499999999	-51872.04	-97252.785	-17646.795	0.0	0.0	0.0	0.0	0.0	0.0	0.0	0.0	0.0	0.0	0.0	0.0	0.0	0.0	145.6551724137931	0.0	0.010681125	-0.040222065	1.01012925	0.85456	0.9156	-0.2289	3169893.0	1776544729.398899	0.0	1.0	-1.0	-1.0	-1.0	-1.0	-1.0	-1.0	-1.0	-1.0	0.0	marker	opened-hand	Open	7	0418
-65728.575	-51853.005	-97116.25499999999	-17528.13	0.0	0.0	0.0	0.0	0.0	0.0	0.0	0.0	0.0	0.0	0.0	0.0	0.0	0.0	145.6551724137931	0.0	0.010681125	-0.040222065	1.01012925	0.85456	0.9156	-0.2289	3169894.0	1776544729.402962	0.0	1.0	-1.0	-1.0	-1.0	-1.0	-1.0	-1.0	-1.0	-1.0	0.0	marker	opened-hand	Open	7	0418
-66227.22	-51887.34	-97610.84999999999	-17988.165	0.0	0.0	0.0	0.0	0.0	0.0	0.0	0.0	0.0	0.0	0.0	0.0	0.0	0.0	145.6551724137931	0.0	0.010681125	-0.040222065	1.01012925	0.85456	0.9156	-0.2289	3169895.0	1776544729.402982	0.0	1.0	-1.0	-1.0	-1.0	-1.0	-1.0	-1.0	-1.0	-1.0	0.0	marker	opened-hand	Open	7	0418
-66146.58	-51889.409999999996	-97506.94499999999	-17892.585	0.0	0.0	0.0	0.0	0.0	0.0	0.0	0.0	0.0	0.0	0.0	0.0	0.0	0.0	145.6551724137931	0.0	0.010681125	-0.040222065	1.01012925	0.85456	0.9156	-0.2289	3169896.0	1776544729.406901	0.0	1.0	-1.0	-1.0	-1.0	-1.0	-1.0	-1.0	-1.0	-1.0	0.0	marker	opened-hand	Open	7	0418
-66110.94	-51887.924999999996	-97463.47499999999	-17810.864999999998	0.0	0.0	0.0	0.0	0.0	0.0	0.0	0.0	0.0	0.0	0.0	0.0	0.0	0.0	145.6551724137931	0.0	0.010681125	-0.040222065	1.01012925	0.85456	0.9156	-0.2289	3169897.0	1776544729.40692	0.0	1.0	-1.0	-1.0	-1.0	-1.0	-1.0	-1.0	-1.0	-1.0	0.0	marker	opened-hand	Open	7	0418
-66123.09	-51896.475	-97556.355	-17953.11	0.0	0.0	0.0	0.0	0.0	0.0	0.0	0.0	0.0	0.0	0.0	0.0	0.0	0.0	145.6551724137931	0.0	0.010681125	-0.040222065	1.01012925	0.85456	0.9156	-0.2289	3169898.0	1776544729.410957	0.0	1.0	-1.0	-1.0	-1.0	-1.0	-1.0	-1.0	-1.0	-1.0	0.0	marker	opened-hand	Open	7	0418
-66240.72	-51901.11	-97588.98	-17964.225	0.0	0.0	0.0	0.0	0.0	0.0	0.0	0.0	0.0	0.0	0.0	0.0	0.0	0.0	145.6551724137931	0.0	0.010681125	-0.040222065	1.01012925	0.85456	0.9156	-0.2289	3169899.0	1776544729.410977	0.0	1.0	-1.0	-1.0	-1.0	-1.0	-1.0	-1.0	-1.0	-1.0	0.0	marker	opened-hand	Open	7	0418
-66149.685	-51913.755	-97497.09	-17833.995	0.0	0.0	0.0	0.0	0.0	0.0	0.0	0.0	0.0	0.0	0.0	0.0	0.0	0.0	145.6551724137931	0.0	0.005065905	-0.063659505	1.01342514	5.84458	1.00716	-2.8994	3169900.0	1776544729.414989	0.0	1.0	-1.0	-1.0	-1.0	-1.0	-1.0	-1.0	-1.0	-1.0	0.0	marker	opened-hand	Open	7	0418
-66143.655	-51934.725	-97382.87999999999	-17793.54	0.0	0.0	0.0	0.0	0.0	0.0	0.0	0.0	0.0	0.0	0.0	0.0	0.0	0.0	145.6551724137931	0.0	0.005065905	-0.063659505	1.01342514	5.84458	1.00716	-2.8994	3169901.0	1776544729.415006	0.0	1.0	-1.0	-1.0	-1.0	-1.0	-1.0	-1.0	-1.0	-1.0	0.0	marker	opened-hand	Open	7	0418
-66251.16	-51949.215	-97514.64	-17954.594999999998	0.0	0.0	0.0	0.0	0.0	0.0	0.0	0.0	0.0	0.0	0.0	0.0	0.0	0.0	145.6551724137931	0.0	0.005065905	-0.063659505	1.01342514	5.84458	1.00716	-2.8994	3169902.0	1776544729.420446	0.0	1.0	-1.0	-1.0	-1.0	-1.0	-1.0	-1.0	-1.0	-1.0	0.0	marker	opened-hand	Open	7	0418
-66096.81	-51941.88	-97554.59999999999	-17927.37	0.0	0.0	0.0	0.0	0.0	0.0	0.0	0.0	0.0	0.0	0.0	0.0	0.0	0.0	145.6551724137931	0.0	0.005065905	-0.063659505	1.01342514	5.84458	1.00716	-2.8994	3169903.0	1776544729.420465	0.0	1.0	-1.0	-1.0	-1.0	-1.0	-1.0	-1.0	-1.0	-1.0	0.0	marker	opened-hand	Open	7	0418
-66022.965	-51940.845	-97503.97499999999	-17817.03	0.0	0.0	0.0	0.0	0.0	0.0	0.0	0.0	0.0	0.0	0.0	0.0	0.0	0.0	145.6551724137931	0.0	0.005065905	-0.063659505	1.01342514	5.84458	1.00716	-2.8994	3169904.0	1776544729.423242	0.0	1.0	-1.0	-1.0	-1.0	-1.0	-1.0	-1.0	-1.0	-1.0	0.0	marker	opened-hand	Open	7	0418
-65857.005	-51934.994999999995	-97306.92	-17618.13	0.0	0.0	0.0	0.0	0.0	0.0	0.0	0.0	0.0	0.0	0.0	0.0	0.0	0.0	145.6551724137931	0.0	0.005065905	-0.063659505	1.01342514	5.84458	1.00716	-2.8994	3169905.0	1776544729.423262	0.0	1.0	-1.0	-1.0	-1.0	-1.0	-1.0	-1.0	-1.0	-1.0	0.0	marker	opened-hand	Open	7	0418
-65853.045	-51932.655	-97299.72	-17603.774999999998	0.0	0.0	0.0	0.0	0.0	0.0	0.0	0.0	0.0	0.0	0.0	0.0	0.0	0.0	145.6551724137931	0.0	0.005065905	-0.063659505	1.01342514	5.84458	1.00716	-2.8994	3169906.0	1776544729.429566	0.0	1.0	-1.0	-1.0	-1.0	-1.0	-1.0	-1.0	-1.0	-1.0	0.0	marker	opened-hand	Open	7	0418
-66377.43	-51954.03	-97617.465	-17991.045	0.0	0.0	0.0	0.0	0.0	0.0	0.0	0.0	0.0	0.0	0.0	0.0	0.0	0.0	145.6551724137931	0.0	0.005065905	-0.063659505	1.01342514	5.84458	1.00716	-2.8994	3169907.0	1776544729.429585	0.0	1.0	-1.0	-1.0	-1.0	-1.0	-1.0	-1.0	-1.0	-1.0	0.0	marker	opened-hand	Open	7	0418
-66251.655	-51944.31	-97539.56999999999	-18004.364999999998	0.0	0.0	0.0	0.0	0.0	0.0	0.0	0.0	0.0	0.0	0.0	0.0	0.0	0.0	145.6551724137931	0.0	0.005065905	-0.063659505	1.01342514	5.84458	1.00716	-2.8994	3169908.0	1776544729.432704	0.0	1.0	-1.0	-1.0	-1.0	-1.0	-1.0	-1.0	-1.0	-1.0	0.0	marker	opened-hand	Open	7	0418
-65950.155	-51918.93	-97344.22499999999	-17721.45	0.0	0.0	0.0	0.0	0.0	0.0	0.0	0.0	0.0	0.0	0.0	0.0	0.0	0.0	145.6551724137931	0.0	0.005065905	-0.063659505	1.01342514	5.84458	1.00716	-2.8994	3169909.0	1776544729.432722	0.0	1.0	-1.0	-1.0	-1.0	-1.0	-1.0	-1.0	-1.0	-1.0	0.0	marker	opened-hand	Open	7	0418
-66090.06	-51920.595	-97530.12	-17832.239999999998	0.0	0.0	0.0	0.0	0.0	0.0	0.0	0.0	0.0	0.0	0.0	0.0	0.0	0.0	145.6551724137931	0.0	-0.001159665	-0.061035	1.02013899	5.5393799999999995	0.01526	-3.2809	3169910.0	1776544729.436303	0.0	1.0	-1.0	-1.0	-1.0	-1.0	-1.0	-1.0	-1.0	-1.0	0.0	marker	opened-hand	Open	7	0418
-66277.845	-51922.619999999995	-97662.69	-17989.155	0.0	0.0	0.0	0.0	0.0	0.0	0.0	0.0	0.0	0.0	0.0	0.0	0.0	0.0	145.6551724137931	0.0	-0.001159665	-0.061035	1.02013899	5.5393799999999995	0.01526	-3.2809	3169911.0	1776544729.436321	0.0	1.0	-1.0	-1.0	-1.0	-1.0	-1.0	-1.0	-1.0	-1.0	0.0	marker	opened-hand	Open	7	0418
-66077.45999999999	-51910.965	-97422.435	-17758.26	0.0	0.0	0.0	0.0	0.0	0.0	0.0	0.0	0.0	0.0	0.0	0.0	0.0	0.0	145.6551724137931	0.0	-0.001159665	-0.061035	1.02013899	5.5393799999999995	0.01526	-3.2809	3169912.0	1776544729.439125	0.0	1.0	-1.0	-1.0	-1.0	-1.0	-1.0	-1.0	-1.0	-1.0	0.0	marker	opened-hand	Open	7	0418
-66233.79	-51931.71	-97495.245	-17834.715	0.0	0.0	0.0	0.0	0.0	0.0	0.0	0.0	0.0	0.0	0.0	0.0	0.0	0.0	145.6551724137931	0.0	-0.001159665	-0.061035	1.02013899	5.5393799999999995	0.01526	-3.2809	3169913.0	1776544729.439143	0.0	1.0	-1.0	-1.0	-1.0	-1.0	-1.0	-1.0	-1.0	-1.0	0.0	marker	opened-hand	Open	7	0418
-66358.485	-51953.49	-97678.70999999999	-18045.765	0.0	0.0	0.0	0.0	0.0	0.0	0.0	0.0	0.0	0.0	0.0	0.0	0.0	0.0	145.6551724137931	0.0	-0.001159665	-0.061035	1.02013899	5.5393799999999995	0.01526	-3.2809	3169914.0	1776544729.442975	0.0	1.0	-1.0	-1.0	-1.0	-1.0	-1.0	-1.0	-1.0	-1.0	0.0	marker	opened-hand	Open	7	0418
-66071.25	-51939.63	-97414.605	-17849.88	0.0	0.0	0.0	0.0	0.0	0.0	0.0	0.0	0.0	0.0	0.0	0.0	0.0	0.0	145.6551724137931	0.0	-0.001159665	-0.061035	1.02013899	5.5393799999999995	0.01526	-3.2809	3169915.0	1776544729.443033	0.0	1.0	-1.0	-1.0	-1.0	-1.0	-1.0	-1.0	-1.0	-1.0	0.0	marker	opened-hand	Open	7	0418
-65902.635	-51928.29	-97266.285	-17686.17	0.0	0.0	0.0	0.0	0.0	0.0	0.0	0.0	0.0	0.0	0.0	0.0	0.0	0.0	145.6551724137931	0.0	-0.001159665	-0.061035	1.02013899	5.5393799999999995	0.01526	-3.2809	3169916.0	1776544729.447046	0.0	1.0	-1.0	-1.0	-1.0	-1.0	-1.0	-1.0	-1.0	-1.0	0.0	marker	opened-hand	Open	7	0418
-65855.655	-51921.225	-97279.515	-17653.86	0.0	0.0	0.0	0.0	0.0	0.0	0.0	0.0	0.0	0.0	0.0	0.0	0.0	0.0	145.6551724137931	0.0	-0.001159665	-0.061035	1.02013899	5.5393799999999995	0.01526	-3.2809	3169917.0	1776544729.447065	0.0	1.0	-1.0	-1.0	-1.0	-1.0	-1.0	-1.0	-1.0	-1.0	0.0	marker	opened-hand	Open	7	0418
-66027.19499999999	-51914.61	-97463.745	-17833.995	0.0	0.0	0.0	0.0	0.0	0.0	0.0	0.0	0.0	0.0	0.0	0.0	0.0	0.0	145.6551724137931	0.0	-0.001159665	-0.061035	1.02013899	5.5393799999999995	0.01526	-3.2809	3169918.0	1776544729.452872	0.0	1.0	-1.0	-1.0	-1.0	-1.0	-1.0	-1.0	-1.0	-1.0	0.0	marker	opened-hand	Open	7	0418
-66176.145	-51911.775	-97637.58	-17989.38	0.0	0.0	0.0	0.0	0.0	0.0	0.0	0.0	0.0	0.0	0.0	0.0	0.0	0.0	145.6551724137931	0.0	-0.001159665	-0.061035	1.02013899	5.5393799999999995	0.01526	-3.2809	3169919.0	1776544729.452892	0.0	1.0	-1.0	-1.0	-1.0	-1.0	-1.0	-1.0	-1.0	-1.0	0.0	marker	opened-hand	Open	7	0418
-66073.36499999999	-51898.725	-97497.045	-17829.045	0.0	0.0	0.0	0.0	0.0	0.0	0.0	0.0	0.0	0.0	0.0	0.0	0.0	0.0	145.6551724137931	0.0	-0.01110837	-0.049133175	1.022763495	5.15788	-0.19838	-2.1516599999999997	3169920.0	1776544729.457143	0.0	1.0	-1.0	-1.0	-1.0	-1.0	-1.0	-1.0	-1.0	-1.0	0.0	marker	opened-hand	Open	7	0418
-66181.68	-51905.564999999995	-97574.22	-17840.25	0.0	0.0	0.0	0.0	0.0	0.0	0.0	0.0	0.0	0.0	0.0	0.0	0.0	0.0	145.6551724137931	0.0	-0.01110837	-0.049133175	1.022763495	5.15788	-0.19838	-2.1516599999999997	3169921.0	1776544729.457177	0.0	1.0	-1.0	-1.0	-1.0	-1.0	-1.0	-1.0	-1.0	-1.0	0.0	marker	opened-hand	Open	7	0418
-66125.655	-51912.18	-97510.275	-17768.61	0.0	0.0	0.0	0.0	0.0	0.0	0.0	0.0	0.0	0.0	0.0	0.0	0.0	0.0	145.6551724137931	0.0	-0.01110837	-0.049133175	1.022763495	5.15788	-0.19838	-2.1516599999999997	3169922.0	1776544729.459115	0.0	1.0	-1.0	-1.0	-1.0	-1.0	-1.0	-1.0	-1.0	-1.0	0.0	marker	opened-hand	Open	7	0418
-66116.79	-51926.22	-97518.465	-17803.53	0.0	0.0	0.0	0.0	0.0	0.0	0.0	0.0	0.0	0.0	0.0	0.0	0.0	0.0	145.6551724137931	0.0	-0.01110837	-0.049133175	1.022763495	5.15788	-0.19838	-2.1516599999999997	3169923.0	1776544729.459134	0.0	1.0	-1.0	-1.0	-1.0	-1.0	-1.0	-1.0	-1.0	-1.0	0.0	marker	opened-hand	Open	7	0418
-66015.045	-51920.775	-97436.43	-17799.48	0.0	0.0	0.0	0.0	0.0	0.0	0.0	0.0	0.0	0.0	0.0	0.0	0.0	0.0	145.6551724137931	0.0	-0.01110837	-0.049133175	1.022763495	5.15788	-0.19838	-2.1516599999999997	3169924.0	1776544729.463199	0.0	1.0	-1.0	-1.0	-1.0	-1.0	-1.0	-1.0	-1.0	-1.0	0.0	marker	opened-hand	Open	7	0418
-65960.01	-51897.195	-97345.62	-17728.425	0.0	0.0	0.0	0.0	0.0	0.0	0.0	0.0	0.0	0.0	0.0	0.0	0.0	0.0	145.6551724137931	0.0	-0.01110837	-0.049133175	1.022763495	5.15788	-0.19838	-2.1516599999999997	3169925.0	1776544729.463217	0.0	1.0	-1.0	-1.0	-1.0	-1.0	-1.0	-1.0	-1.0	-1.0	0.0	marker	opened-hand	Open	7	0418
-66123.09	-51896.655	-97533.18	-17891.415	0.0	0.0	0.0	0.0	0.0	0.0	0.0	0.0	0.0	0.0	0.0	0.0	0.0	0.0	145.6551724137931	0.0	-0.01110837	-0.049133175	1.022763495	5.15788	-0.19838	-2.1516599999999997	3169926.0	1776544729.467192	0.0	1.0	-1.0	-1.0	-1.0	-1.0	-1.0	-1.0	-1.0	-1.0	0.0	marker	opened-hand	Open	7	0418
-66123.58499999999	-51900.615	-97424.73	-17800.245	0.0	0.0	0.0	0.0	0.0	0.0	0.0	0.0	0.0	0.0	0.0	0.0	0.0	0.0	145.6551724137931	0.0	-0.01110837	-0.049133175	1.022763495	5.15788	-0.19838	-2.1516599999999997	3169927.0	1776544729.467211	0.0	1.0	-1.0	-1.0	-1.0	-1.0	-1.0	-1.0	-1.0	-1.0	0.0	marker	opened-hand	Open	7	0418
-66120.66	-51932.564999999995	-97352.64	-17719.785	0.0	0.0	0.0	0.0	0.0	0.0	0.0	0.0	0.0	0.0	0.0	0.0	0.0	0.0	145.6551724137931	0.0	-0.01110837	-0.049133175	1.022763495	5.15788	-0.19838	-2.1516599999999997	3169928.0	1776544729.472043	0.0	1.0	-1.0	-1.0	-1.0	-1.0	-1.0	-1.0	-1.0	-1.0	0.0	marker	opened-hand	Open	7	0418
-66270.69	-51963.975	-97756.69499999999	-18040.545	0.0	0.0	0.0	0.0	0.0	0.0	0.0	0.0	0.0	0.0	0.0	0.0	0.0	0.0	145.6551724137931	0.0	-0.01110837	-0.049133175	1.022763495	5.15788	-0.19838	-2.1516599999999997	3169929.0	1776544729.472057	0.0	1.0	-1.0	-1.0	-1.0	-1.0	-1.0	-1.0	-1.0	-1.0	0.0	marker	opened-hand	Open	7	0418
-65935.665	-51957.36	-97611.075	-17907.434999999998	0.0	0.0	0.0	0.0	0.0	0.0	0.0	0.0	0.0	0.0	0.0	0.0	0.0	0.0	145.6551724137931	0.0	-0.00146484	-0.03308097	1.01220444	3.6318799999999998	0.8698199999999999	-1.6633399999999998	3169930.0	1776544729.475097	0.0	1.0	-1.0	-1.0	-1.0	-1.0	-1.0	-1.0	-1.0	-1.0	0.0	marker	opened-hand	Open	7	0418
-65980.98	-51949.979999999996	-97411.59	-17734.32	0.0	0.0	0.0	0.0	0.0	0.0	0.0	0.0	0.0	0.0	0.0	0.0	0.0	0.0	145.6551724137931	0.0	-0.00146484	-0.03308097	1.01220444	3.6318799999999998	0.8698199999999999	-1.6633399999999998	3169931.0	1776544729.475111	0.0	1.0	-1.0	-1.0	-1.0	-1.0	-1.0	-1.0	-1.0	-1.0	0.0	marker	opened-hand	Open	7	0418
-65924.145	-51947.954999999994	-97359.48	-17720.505	0.0	0.0	0.0	0.0	0.0	0.0	0.0	0.0	0.0	0.0	0.0	0.0	0.0	0.0	145.6551724137931	0.0	-0.00146484	-0.03308097	1.01220444	3.6318799999999998	0.8698199999999999	-1.6633399999999998	3169932.0	1776544729.479158	0.0	1.0	-1.0	-1.0	-1.0	-1.0	-1.0	-1.0	-1.0	-1.0	0.0	marker	opened-hand	Open	7	0418
-66107.295	-51950.204999999994	-97526.655	-17877.105	0.0	0.0	0.0	0.0	0.0	0.0	0.0	0.0	0.0	0.0	0.0	0.0	0.0	0.0	145.6551724137931	0.0	-0.00146484	-0.03308097	1.01220444	3.6318799999999998	0.8698199999999999	-1.6633399999999998	3169933.0	1776544729.479169	0.0	1.0	-1.0	-1.0	-1.0	-1.0	-1.0	-1.0	-1.0	-1.0	0.0	marker	opened-hand	Open	7	0418
-66400.92	-51955.695	-97726.275	-18070.245	0.0	0.0	0.0	0.0	0.0	0.0	0.0	0.0	0.0	0.0	0.0	0.0	0.0	0.0	145.6551724137931	0.0	-0.00146484	-0.03308097	1.01220444	3.6318799999999998	0.8698199999999999	-1.6633399999999998	3169934.0	1776544729.484915	0.0	1.0	-1.0	-1.0	-1.0	-1.0	-1.0	-1.0	-1.0	-1.0	0.0	marker	opened-hand	Open	7	0418
-66227.13	-51932.88	-97599.15	-17942.895	0.0	0.0	0.0	0.0	0.0	0.0	0.0	0.0	0.0	0.0	0.0	0.0	0.0	0.0	145.6551724137931	0.0	-0.00146484	-0.03308097	1.01220444	3.6318799999999998	0.8698199999999999	-1.6633399999999998	3169935.0	1776544729.484937	0.0	1.0	-1.0	-1.0	-1.0	-1.0	-1.0	-1.0	-1.0	-1.0	0.0	marker	opened-hand	Open	7	0418
-66097.44	-51915.96	-97529.12999999999	-17842.094999999998	0.0	0.0	0.0	0.0	0.0	0.0	0.0	0.0	0.0	0.0	0.0	0.0	0.0	0.0	145.6551724137931	0.0	-0.00146484	-0.03308097	1.01220444	3.6318799999999998	0.8698199999999999	-1.6633399999999998	3169936.0	1776544729.492347	0.0	1.0	-1.0	-1.0	-1.0	-1.0	-1.0	-1.0	-1.0	-1.0	0.0	marker	opened-hand	Open	7	0418
-65940.39	-51902.775	-97397.81999999999	-17706.149999999998	0.0	0.0	0.0	0.0	0.0	0.0	0.0	0.0	0.0	0.0	0.0	0.0	0.0	0.0	145.6551724137931	0.0	-0.00146484	-0.03308097	1.01220444	3.6318799999999998	0.8698199999999999	-1.6633399999999998	3169937.0	1776544729.492368	0.0	1.0	-1.0	-1.0	-1.0	-1.0	-1.0	-1.0	-1.0	-1.0	0.0	marker	opened-hand	Open	7	0418
-65944.665	-51907.32	-97318.39499999999	-17637.57	0.0	0.0	0.0	0.0	0.0	0.0	0.0	0.0	0.0	0.0	0.0	0.0	0.0	0.0	145.6551724137931	0.0	-0.00146484	-0.03308097	1.01220444	3.6318799999999998	0.8698199999999999	-1.6633399999999998	3169938.0	1776544729.492393	0.0	1.0	-1.0	-1.0	-1.0	-1.0	-1.0	-1.0	-1.0	-1.0	0.0	marker	opened-hand	Open	7	0418
-65892.69	-51910.38	-97327.44	-17663.445	0.0	0.0	0.0	0.0	0.0	0.0	0.0	0.0	0.0	0.0	0.0	0.0	0.0	0.0	145.6551724137931	0.0	-0.00146484	-0.03308097	1.01220444	3.6318799999999998	0.8698199999999999	-1.6633399999999998	3169939.0	1776544729.492411	0.0	1.0	-1.0	-1.0	-1.0	-1.0	-1.0	-1.0	-1.0	-1.0	0.0	marker	opened-hand	Open	7	0418
-65901.015	-51905.52	-97390.935	-17715.149999999998	0.0	0.0	0.0	0.0	0.0	0.0	0.0	0.0	0.0	0.0	0.0	0.0	0.0	0.0	145.6551724137931	0.0	0.016662555	-0.036804105000000004	1.0100071800000001	3.815	1.26658	-0.9613799999999999	3169940.0	1776544729.495203	0.0	1.0	-1.0	-1.0	-1.0	-1.0	-1.0	-1.0	-1.0	-1.0	0.0	marker	opened-hand	Open	7	0418
-66274.875	-51907.545	-97667.19	-17906.13	0.0	0.0	0.0	0.0	0.0	0.0	0.0	0.0	0.0	0.0	0.0	0.0	0.0	0.0	145.6551724137931	0.0	0.016662555	-0.036804105000000004	1.0100071800000001	3.815	1.26658	-0.9613799999999999	3169941.0	1776544729.495221	0.0	1.0	-1.0	-1.0	-1.0	-1.0	-1.0	-1.0	-1.0	-1.0	0.0	marker	opened-hand	Open	7	0418
-66370.455	-51901.784999999996	-97835.355	-18108.09	0.0	0.0	0.0	0.0	0.0	0.0	0.0	0.0	0.0	0.0	0.0	0.0	0.0	0.0	145.6551724137931	0.0	0.016662555	-0.036804105000000004	1.0100071800000001	3.815	1.26658	-0.9613799999999999	3169942.0	1776544729.500612	0.0	1.0	-1.0	-1.0	-1.0	-1.0	-1.0	-1.0	-1.0	-1.0	0.0	marker	opened-hand	Open	7	0418
-66218.48999999999	-51885.09	-97589.79	-17903.88	0.0	0.0	0.0	0.0	0.0	0.0	0.0	0.0	0.0	0.0	0.0	0.0	0.0	0.0	145.6551724137931	0.0	0.016662555	-0.036804105000000004	1.0100071800000001	3.815	1.26658	-0.9613799999999999	3169943.0	1776544729.500629	0.0	1.0	-1.0	-1.0	-1.0	-1.0	-1.0	-1.0	-1.0	-1.0	0.0	marker	opened-hand	Open	7	0418
-66126.915	-51882.93	-97497.26999999999	-17817.93	0.0	0.0	0.0	0.0	0.0	0.0	0.0	0.0	0.0	0.0	0.0	0.0	0.0	0.0	145.6551724137931	0.0	0.016662555	-0.036804105000000004	1.0100071800000001	3.815	1.26658	-0.9613799999999999	3169944.0	1776544729.504075	0.0	1.0	-1.0	-1.0	-1.0	-1.0	-1.0	-1.0	-1.0	-1.0	0.0	marker	opened-hand	Open	7	0418
-66030.075	-51878.34	-97485.165	-17810.37	0.0	0.0	0.0	0.0	0.0	0.0	0.0	0.0	0.0	0.0	0.0	0.0	0.0	0.0	145.6551724137931	0.0	0.016662555	-0.036804105000000004	1.0100071800000001	3.815	1.26658	-0.9613799999999999	3169945.0	1776544729.504093	0.0	1.0	-1.0	-1.0	-1.0	-1.0	-1.0	-1.0	-1.0	-1.0	0.0	marker	opened-hand	Open	7	0418
-65973.285	-51871.59	-97406.09999999999	-17719.38	0.0	0.0	0.0	0.0	0.0	0.0	0.0	0.0	0.0	0.0	0.0	0.0	0.0	0.0	145.6551724137931	0.0	0.016662555	-0.036804105000000004	1.0100071800000001	3.815	1.26658	-0.9613799999999999	3169946.0	1776544729.507325	0.0	1.0	-1.0	-1.0	-1.0	-1.0	-1.0	-1.0	-1.0	-1.0	0.0	marker	opened-hand	Open	7	0418
-66081.78	-51881.22	-97499.7	-17813.475	0.0	0.0	0.0	0.0	0.0	0.0	0.0	0.0	0.0	0.0	0.0	0.0	0.0	0.0	145.6551724137931	0.0	0.016662555	-0.036804105000000004	1.0100071800000001	3.815	1.26658	-0.9613799999999999	3169947.0	1776544729.507347	0.0	1.0	-1.0	-1.0	-1.0	-1.0	-1.0	-1.0	-1.0	-1.0	0.0	marker	opened-hand	Open	7	0418
-65925.675	-51893.189999999995	-97345.53	-17682.075	0.0	0.0	0.0	0.0	0.0	0.0	0.0	0.0	0.0	0.0	0.0	0.0	0.0	0.0	145.6551724137931	0.0	0.016662555	-0.036804105000000004	1.0100071800000001	3.815	1.26658	-0.9613799999999999	3169948.0	1776544729.511249	0.0	1.0	-1.0	-1.0	-1.0	-1.0	-1.0	-1.0	-1.0	-1.0	0.0	marker	opened-hand	Open	7	0418
-65700.315	-51882.975	-97119.62999999999	-17492.76	0.0	0.0	0.0	0.0	0.0	0.0	0.0	0.0	0.0	0.0	0.0	0.0	0.0	0.0	145.6551724137931	0.0	0.016662555	-0.036804105000000004	1.0100071800000001	3.815	1.26658	-0.9613799999999999	3169949.0	1776544729.511267	0.0	1.0	-1.0	-1.0	-1.0	-1.0	-1.0	-1.0	-1.0	-1.0	0.0	marker	opened-hand	Open	7	0418
-66064.68	-51907.275	-97469.28	-17766.54	0.0	0.0	0.0	0.0	0.0	0.0	0.0	0.0	0.0	0.0	0.0	0.0	0.0	0.0	145.6551724137931	0.0	0.01208493	-0.04309071	1.015927575	4.48644	1.46496	-2.0448399999999998	3169950.0	1776544729.516801	0.0	1.0	-1.0	-1.0	-1.0	-1.0	-1.0	-1.0	-1.0	-1.0	0.0	marker	opened-hand	Open	7	0418
-66286.395	-51925.454999999994	-97754.715	-18052.29	0.0	0.0	0.0	0.0	0.0	0.0	0.0	0.0	0.0	0.0	0.0	0.0	0.0	0.0	145.6551724137931	0.0	0.01208493	-0.04309071	1.015927575	4.48644	1.46496	-2.0448399999999998	3169951.0	1776544729.516819	0.0	1.0	-1.0	-1.0	-1.0	-1.0	-1.0	-1.0	-1.0	-1.0	0.0	marker	opened-hand	Open	7	0418
-66232.755	-51921.045	-97683.705	-18001.71	0.0	0.0	0.0	0.0	0.0	0.0	0.0	0.0	0.0	0.0	0.0	0.0	0.0	0.0	145.6551724137931	0.0	0.01208493	-0.04309071	1.015927575	4.48644	1.46496	-2.0448399999999998	3169952.0	1776544729.519144	0.0	1.0	-1.0	-1.0	-1.0	-1.0	-1.0	-1.0	-1.0	-1.0	0.0	marker	opened-hand	Open	7	0418
-66191.84999999999	-51922.71	-97628.31	-17964.54	0.0	0.0	0.0	0.0	0.0	0.0	0.0	0.0	0.0	0.0	0.0	0.0	0.0	0.0	145.6551724137931	0.0	0.01208493	-0.04309071	1.015927575	4.48644	1.46496	-2.0448399999999998	3169953.0	1776544729.519161	0.0	1.0	-1.0	-1.0	-1.0	-1.0	-1.0	-1.0	-1.0	-1.0	0.0	marker	opened-hand	Open	7	0418
-66199.995	-51936.299999999996	-97596.98999999999	-18022.005	0.0	0.0	0.0	0.0	0.0	0.0	0.0	0.0	0.0	0.0	0.0	0.0	0.0	0.0	145.6551724137931	0.0	0.01208493	-0.04309071	1.015927575	4.48644	1.46496	-2.0448399999999998	3169954.0	1776544729.525635	0.0	1.0	-1.0	-1.0	-1.0	-1.0	-1.0	-1.0	-1.0	-1.0	0.0	marker	opened-hand	Open	7	0418
-66167.145	-51941.88	-97502.94	-17844.03	0.0	0.0	0.0	0.0	0.0	0.0	0.0	0.0	0.0	0.0	0.0	0.0	0.0	0.0	145.6551724137931	0.0	0.01208493	-0.04309071	1.015927575	4.48644	1.46496	-2.0448399999999998	3169955.0	1776544729.525653	0.0	1.0	-1.0	-1.0	-1.0	-1.0	-1.0	-1.0	-1.0	-1.0	0.0	marker	opened-hand	Open	7	0418
-65980.98	-51933.689999999995	-97504.29	-17757.495	0.0	0.0	0.0	0.0	0.0	0.0	0.0	0.0	0.0	0.0	0.0	0.0	0.0	0.0	145.6551724137931	0.0	0.01208493	-0.04309071	1.015927575	4.48644	1.46496	-2.0448399999999998	3169956.0	1776544729.528742	0.0	1.0	-1.0	-1.0	-1.0	-1.0	-1.0	-1.0	-1.0	-1.0	0.0	marker	opened-hand	Open	7	0418
-66141.765	-51940.575	-97670.16	-17914.635	0.0	0.0	0.0	0.0	0.0	0.0	0.0	0.0	0.0	0.0	0.0	0.0	0.0	0.0	145.6551724137931	0.0	0.01208493	-0.04309071	1.015927575	4.48644	1.46496	-2.0448399999999998	3169957.0	1776544729.528759	0.0	1.0	-1.0	-1.0	-1.0	-1.0	-1.0	-1.0	-1.0	-1.0	0.0	marker	opened-hand	Open	7	0418
-66048.345	-51926.13	-97473.06	-17819.82	0.0	0.0	0.0	0.0	0.0	0.0	0.0	0.0	0.0	0.0	0.0	0.0	0.0	0.0	145.6551724137931	0.0	0.01208493	-0.04309071	1.015927575	4.48644	1.46496	-2.0448399999999998	3169958.0	1776544729.531855	0.0	1.0	-1.0	-1.0	-1.0	-1.0	-1.0	-1.0	-1.0	-1.0	0.0	marker	opened-hand	Open	7	0418
-65940.84	-51909.345	-97391.11499999999	-17714.43	0.0	0.0	0.0	0.0	0.0	0.0	0.0	0.0	0.0	0.0	0.0	0.0	0.0	0.0	145.6551724137931	0.0	0.01208493	-0.04309071	1.015927575	4.48644	1.46496	-2.0448399999999998	3169959.0	1776544729.531876	0.0	1.0	-1.0	-1.0	-1.0	-1.0	-1.0	-1.0	-1.0	-1.0	0.0	marker	opened-hand	Open	7	0418
-66096.315	-51921.945	-97508.51999999999	-17784.09	0.0	0.0	0.0	0.0	0.0	0.0	0.0	0.0	0.0	0.0	0.0	0.0	0.0	0.0	145.6551724137931	0.0	-0.0034179600000000003	-0.043029675	1.02831768	3.95234	-0.35097999999999996	-0.79352	3169960.0	1776544729.535327	0.0	1.0	-1.0	-1.0	-1.0	-1.0	-1.0	-1.0	-1.0	-1.0	0.0	marker	opened-hand	Open	7	0418
-66143.205	-51933.465	-97597.26	-17848.53	0.0	0.0	0.0	0.0	0.0	0.0	0.0	0.0	0.0	0.0	0.0	0.0	0.0	0.0	145.6551724137931	0.0	-0.0034179600000000003	-0.043029675	1.02831768	3.95234	-0.35097999999999996	-0.79352	3169961.0	1776544729.535345	0.0	1.0	-1.0	-1.0	-1.0	-1.0	-1.0	-1.0	-1.0	-1.0	0.0	marker	opened-hand	Open	7	0418
-66086.81999999999	-51938.009999999995	-97521.25499999999	-17753.399999999998	0.0	0.0	0.0	0.0	0.0	0.0	0.0	0.0	0.0	0.0	0.0	0.0	0.0	0.0	145.6551724137931	0.0	-0.0034179600000000003	-0.043029675	1.02831768	3.95234	-0.35097999999999996	-0.79352	3169962.0	1776544729.53935	0.0	1.0	-1.0	-1.0	-1.0	-1.0	-1.0	-1.0	-1.0	-1.0	0.0	marker	opened-hand	Open	7	0418
-66088.08	-51937.965	-97441.965	-17736.57	0.0	0.0	0.0	0.0	0.0	0.0	0.0	0.0	0.0	0.0	0.0	0.0	0.0	0.0	145.6551724137931	0.0	-0.0034179600000000003	-0.043029675	1.02831768	3.95234	-0.35097999999999996	-0.79352	3169963.0	1776544729.539377	0.0	1.0	-1.0	-1.0	-1.0	-1.0	-1.0	-1.0	-1.0	-1.0	0.0	marker	opened-hand	Open	7	0418
-66081.645	-51929.64	-97397.50499999999	-17734.32	0.0	0.0	0.0	0.0	0.0	0.0	0.0	0.0	0.0	0.0	0.0	0.0	0.0	0.0	145.6551724137931	0.0	-0.0034179600000000003	-0.043029675	1.02831768	3.95234	-0.35097999999999996	-0.79352	3169964.0	1776544729.543337	0.0	1.0	-1.0	-1.0	-1.0	-1.0	-1.0	-1.0	-1.0	-1.0	0.0	marker	opened-hand	Open	7	0418
-66102.61499999999	-51938.865	-97648.47	-17971.29	0.0	0.0	0.0	0.0	0.0	0.0	0.0	0.0	0.0	0.0	0.0	0.0	0.0	0.0	145.6551724137931	0.0	-0.0034179600000000003	-0.043029675	1.02831768	3.95234	-0.35097999999999996	-0.79352	3169965.0	1776544729.543356	0.0	1.0	-1.0	-1.0	-1.0	-1.0	-1.0	-1.0	-1.0	-1.0	0.0	marker	opened-hand	Open	7	0418
-65950.38	-51924.6	-97548.795	-17889.255	0.0	0.0	0.0	0.0	0.0	0.0	0.0	0.0	0.0	0.0	0.0	0.0	0.0	0.0	145.6551724137931	0.0	-0.0034179600000000003	-0.043029675	1.02831768	3.95234	-0.35097999999999996	-0.79352	3169966.0	1776544729.548546	0.0	1.0	-1.0	-1.0	-1.0	-1.0	-1.0	-1.0	-1.0	-1.0	0.0	marker	opened-hand	Open	7	0418
-65954.52	-51906.284999999996	-97487.415	-17802.09	0.0	0.0	0.0	0.0	0.0	0.0	0.0	0.0	0.0	0.0	0.0	0.0	0.0	0.0	145.6551724137931	0.0	-0.0034179600000000003	-0.043029675	1.02831768	3.95234	-0.35097999999999996	-0.79352	3169967.0	1776544729.548567	0.0	1.0	-1.0	-1.0	-1.0	-1.0	-1.0	-1.0	-1.0	-1.0	0.0	marker	opened-hand	Open	7	0418
-66190.635	-51910.695	-97623.22499999999	-17865.585	0.0	0.0	0.0	0.0	0.0	0.0	0.0	0.0	0.0	0.0	0.0	0.0	0.0	0.0	145.6551724137931	0.0	-0.0034179600000000003	-0.043029675	1.02831768	3.95234	-0.35097999999999996	-0.79352	3169968.0	1776544729.551421	0.0	1.0	-1.0	-1.0	-1.0	-1.0	-1.0	-1.0	-1.0	-1.0	0.0	marker	opened-hand	Open	7	0418
-66107.7	-51909.795	-97573.05	-17847.989999999998	0.0	0.0	0.0	0.0	0.0	0.0	0.0	0.0	0.0	0.0	0.0	0.0	0.0	0.0	145.6551724137931	0.0	-0.0034179600000000003	-0.043029675	1.02831768	3.95234	-0.35097999999999996	-0.79352	3169969.0	1776544729.551442	0.0	1.0	-1.0	-1.0	-1.0	-1.0	-1.0	-1.0	-1.0	-1.0	0.0	marker	opened-hand	Open	7	0418
-66052.89	-51923.295	-97533.135	-17844.3	0.0	0.0	0.0	0.0	0.0	0.0	0.0	0.0	0.0	0.0	0.0	0.0	0.0	0.0	145.6551724137931	0.0	-0.01049802	-0.02770989	1.029233205	1.15976	-0.59514	3.052	3169970.0	1776544729.555494	0.0	1.0	-1.0	-1.0	-1.0	-1.0	-1.0	-1.0	-1.0	-1.0	0.0	marker	opened-hand	Open	7	0418
-66045.87	-51939.99	-97539.03	-17868.285	0.0	0.0	0.0	0.0	0.0	0.0	0.0	0.0	0.0	0.0	0.0	0.0	0.0	0.0	145.6551724137931	0.0	-0.01049802	-0.02770989	1.029233205	1.15976	-0.59514	3.052	3169971.0	1776544729.555511	0.0	1.0	-1.0	-1.0	-1.0	-1.0	-1.0	-1.0	-1.0	-1.0	0.0	marker	opened-hand	Open	7	0418
-66138.48	-51956.64	-97586.595	-17855.1	0.0	0.0	0.0	0.0	0.0	0.0	0.0	0.0	0.0	0.0	0.0	0.0	0.0	0.0	145.6551724137931	0.0	-0.01049802	-0.02770989	1.029233205	1.15976	-0.59514	3.052	3169972.0	1776544729.559382	0.0	1.0	-1.0	-1.0	-1.0	-1.0	-1.0	-1.0	-1.0	-1.0	0.0	marker	opened-hand	Open	7	0418
-66131.415	-51960.689999999995	-97519.5	-17778.015	0.0	0.0	0.0	0.0	0.0	0.0	0.0	0.0	0.0	0.0	0.0	0.0	0.0	0.0	145.6551724137931	0.0	-0.01049802	-0.02770989	1.029233205	1.15976	-0.59514	3.052	3169973.0	1776544729.559397	0.0	1.0	-1.0	-1.0	-1.0	-1.0	-1.0	-1.0	-1.0	-1.0	0.0	marker	opened-hand	Open	7	0418
-66154.59	-51951.104999999996	-97604.685	-17914.14	0.0	0.0	0.0	0.0	0.0	0.0	0.0	0.0	0.0	0.0	0.0	0.0	0.0	0.0	145.6551724137931	0.0	-0.01049802	-0.02770989	1.029233205	1.15976	-0.59514	3.052	3169974.0	1776544729.564995	0.0	1.0	-1.0	-1.0	-1.0	-1.0	-1.0	-1.0	-1.0	-1.0	0.0	marker	opened-hand	Open	7	0418
-65785.05	-51907.005	-97310.655	-17659.755	0.0	0.0	0.0	0.0	0.0	0.0	0.0	0.0	0.0	0.0	0.0	0.0	0.0	0.0	145.6551724137931	0.0	-0.01049802	-0.02770989	1.029233205	1.15976	-0.59514	3.052	3169975.0	1776544729.565019	0.0	1.0	-1.0	-1.0	-1.0	-1.0	-1.0	-1.0	-1.0	-1.0	0.0	marker	opened-hand	Open	7	0418
-65873.295	-51899.805	-97376.12999999999	-17641.17	0.0	0.0	0.0	0.0	0.0	0.0	0.0	0.0	0.0	0.0	0.0	0.0	0.0	0.0	145.6551724137931	0.0	-0.01049802	-0.02770989	1.029233205	1.15976	-0.59514	3.052	3169976.0	1776544729.567566	0.0	1.0	-1.0	-1.0	-1.0	-1.0	-1.0	-1.0	-1.0	-1.0	0.0	marker	opened-hand	Open	7	0418
-66191.13	-51928.92	-97659.855	-17912.565	0.0	0.0	0.0	0.0	0.0	0.0	0.0	0.0	0.0	0.0	0.0	0.0	0.0	0.0	145.6551724137931	0.0	-0.01049802	-0.02770989	1.029233205	1.15976	-0.59514	3.052	3169977.0	1776544729.567576	0.0	1.0	-1.0	-1.0	-1.0	-1.0	-1.0	-1.0	-1.0	-1.0	0.0	marker	opened-hand	Open	7	0418
-65854.08	-51922.35	-97325.37	-17630.64	0.0	0.0	0.0	0.0	0.0	0.0	0.0	0.0	0.0	0.0	0.0	0.0	0.0	0.0	145.6551724137931	0.0	-0.01049802	-0.02770989	1.029233205	1.15976	-0.59514	3.052	3169978.0	1776544729.571376	0.0	1.0	-1.0	-1.0	-1.0	-1.0	-1.0	-1.0	-1.0	-1.0	0.0	marker	opened-hand	Open	7	0418
-66019.31999999999	-51948.945	-97477.73999999999	-17780.94	0.0	0.0	0.0	0.0	0.0	0.0	0.0	0.0	0.0	0.0	0.0	0.0	0.0	0.0	145.6551724137931	0.0	-0.01049802	-0.02770989	1.029233205	1.15976	-0.59514	3.052	3169979.0	1776544729.571384	0.0	1.0	-1.0	-1.0	-1.0	-1.0	-1.0	-1.0	-1.0	-1.0	0.0	marker	opened-hand	Open	7	0418
-66249.765	-51980.85	-97740.855	-18021.78	0.0	0.0	0.0	0.0	0.0	0.0	0.0	0.0	0.0	0.0	0.0	0.0	0.0	0.0	145.6551724137931	0.0	0.005187975	-0.03478995	1.016537925	0.5341	0.19838	-0.25942	3169980.0	1776544729.575448	0.0	1.0	-1.0	-1.0	-1.0	-1.0	-1.0	-1.0	-1.0	-1.0	0.0	marker	opened-hand	Open	7	0418
-66251.83499999999	-51984.63	-97704.94499999999	-17990.82	0.0	0.0	0.0	0.0	0.0	0.0	0.0	0.0	0.0	0.0	0.0	0.0	0.0	0.0	145.6551724137931	0.0	0.005187975	-0.03478995	1.016537925	0.5341	0.19838	-0.25942	3169981.0	1776544729.575468	0.0	1.0	-1.0	-1.0	-1.0	-1.0	-1.0	-1.0	-1.0	-1.0	0.0	marker	opened-hand	Open	7	0418
-66215.655	-51978.104999999996	-97728.25499999999	-17979.48	0.0	0.0	0.0	0.0	0.0	0.0	0.0	0.0	0.0	0.0	0.0	0.0	0.0	0.0	145.6551724137931	0.0	0.005187975	-0.03478995	1.016537925	0.5341	0.19838	-0.25942	3169982.0	1776544729.579512	0.0	1.0	-1.0	-1.0	-1.0	-1.0	-1.0	-1.0	-1.0	-1.0	0.0	marker	opened-hand	Open	7	0418
-66140.37	-51950.88	-97651.17	-17907.165	0.0	0.0	0.0	0.0	0.0	0.0	0.0	0.0	0.0	0.0	0.0	0.0	0.0	0.0	145.6551724137931	0.0	0.005187975	-0.03478995	1.016537925	0.5341	0.19838	-0.25942	3169983.0	1776544729.579532	0.0	1.0	-1.0	-1.0	-1.0	-1.0	-1.0	-1.0	-1.0	-1.0	0.0	marker	opened-hand	Open	7	0418
-65916.98999999999	-51919.965	-97428.33	-17680.184999999998	0.0	0.0	0.0	0.0	0.0	0.0	0.0	0.0	0.0	0.0	0.0	0.0	0.0	0.0	145.6551724137931	0.0	0.005187975	-0.03478995	1.016537925	0.5341	0.19838	-0.25942	3169984.0	1776544729.583412	0.0	1.0	-1.0	-1.0	-1.0	-1.0	-1.0	-1.0	-1.0	-1.0	0.0	marker	opened-hand	Open	7	0418
-65884.36499999999	-51910.155	-97374.19499999999	-17639.595	0.0	0.0	0.0	0.0	0.0	0.0	0.0	0.0	0.0	0.0	0.0	0.0	0.0	0.0	145.6551724137931	0.0	0.005187975	-0.03478995	1.016537925	0.5341	0.19838	-0.25942	3169985.0	1776544729.583432	0.0	1.0	-1.0	-1.0	-1.0	-1.0	-1.0	-1.0	-1.0	-1.0	0.0	marker	opened-hand	Open	7	0418
-66174.56999999999	-51929.82	-97573.68	-17821.53	0.0	0.0	0.0	0.0	0.0	0.0	0.0	0.0	0.0	0.0	0.0	0.0	0.0	0.0	145.6551724137931	0.0	0.005187975	-0.03478995	1.016537925	0.5341	0.19838	-0.25942	3169986.0	1776544729.587565	0.0	1.0	-1.0	-1.0	-1.0	-1.0	-1.0	-1.0	-1.0	-1.0	0.0	marker	opened-hand	Open	7	0418
-66202.11	-51939.27	-97723.62	-18025.2	0.0	0.0	0.0	0.0	0.0	0.0	0.0	0.0	0.0	0.0	0.0	0.0	0.0	0.0	145.6551724137931	0.0	0.005187975	-0.03478995	1.016537925	0.5341	0.19838	-0.25942	3169987.0	1776544729.587586	0.0	1.0	-1.0	-1.0	-1.0	-1.0	-1.0	-1.0	-1.0	-1.0	0.0	marker	opened-hand	Open	7	0418
-66106.845	-51933.825	-97591.635	-17932.545	0.0	0.0	0.0	0.0	0.0	0.0	0.0	0.0	0.0	0.0	0.0	0.0	0.0	0.0	145.6551724137931	0.0	0.005187975	-0.03478995	1.016537925	0.5341	0.19838	-0.25942	3169988.0	1776544729.591609	0.0	1.0	-1.0	-1.0	-1.0	-1.0	-1.0	-1.0	-1.0	-1.0	0.0	marker	opened-hand	Open	7	0418
-66048.03	-51928.2	-97507.08	-17863.469999999998	0.0	0.0	0.0	0.0	0.0	0.0	0.0	0.0	0.0	0.0	0.0	0.0	0.0	0.0	145.6551724137931	0.0	0.005187975	-0.03478995	1.016537925	0.5341	0.19838	-0.25942	3169989.0	1776544729.591629	0.0	1.0	-1.0	-1.0	-1.0	-1.0	-1.0	-1.0	-1.0	-1.0	0.0	marker	opened-hand	Open	7	0418
-65960.45999999999	-51910.92	-97427.205	-17637.03	0.0	0.0	0.0	0.0	0.0	0.0	0.0	0.0	0.0	0.0	0.0	0.0	0.0	0.0	145.6551724137931	0.0	0.015319785	-0.054687360000000004	1.006406115	4.6085199999999995	1.38866	-1.7396399999999999	3169990.0	1776544729.595553	0.0	1.0	-1.0	-1.0	-1.0	-1.0	-1.0	-1.0	-1.0	-1.0	0.0	marker	opened-hand	Open	7	0418
