ch_0	ch_1	ch_2	ch_3	ch_4	ch_5	ch_6	ch_7	ch_8	ch_9	ch_10	ch_11	ch_12	ch_13	ch_14	ch_15	ch_16	ch_17	ch_18	ch_19	ch_20	ch_21	ch_22	ch_23	ch_24	ch_25	ch_26	timestamp	marker	ch_29	ch_30	ch_31	ch_32	ch_33	ch_34	ch_35	ch_36	ch_37	ch_38	MarkerColumn	GestureLabel	CueLabel	SampleNumber	CollectionDate
-66144.19499999999	-52743.509999999995	-101667.285	-17886.78	0.0	0.0	0.0	0.0	0.0	0.0	0.0	0.0	0.0	0.0	0.0	0.0	0.0	0.0	145.86206896551727	0.0	0.00134277	-0.052062855	1.020688305	-0.2289	-1.03768	1.84646	3174782.0	1776544739.212146	3.0	1.0	-1.0	-1.0	-1.0	-1.0	-1.0	-1.0	-1.0	-1.0	0.0	marker	opened-hand	Open	8	0418
-66017.79	-52733.655	-101474.73	-17706.375	0.0	0.0	0.0	0.0	0.0	0.0	0.0	0.0	0.0	0.0	0.0	0.0	0.0	0.0	145.86206896551727	0.0	0.00134277	-0.052062855	1.020688305	-0.2289	-1.03768	1.84646	3174783.0	1776544739.21215	0.0	1.0	-1.0	-1.0	-1.0	-1.0	-1.0	-1.0	-1.0	-1.0	0.0	marker	opened-hand	Open	8	0418
-66083.58	-52738.424999999996	-101524.635	-17738.28	0.0	0.0	0.0	0.0	0.0	0.0	0.0	0.0	0.0	0.0	0.0	0.0	0.0	0.0	145.86206896551727	0.0	0.00134277	-0.052062855	1.020688305	-0.2289	-1.03768	1.84646	3174784.0	1776544739.216301	0.0	1.0	-1.0	-1.0	-1.0	-1.0	-1.0	-1.0	-1.0	-1.0	0.0	marker	opened-hand	Open	8	0418
-66243.555	-52760.295	-101772.94499999999	-18005.445	0.0	0.0	0.0	0.0	0.0	0.0	0.0	0.0	0.0	0.0	0.0	0.0	0.0	0.0	145.86206896551727	0.0	0.00134277	-0.052062855	1.020688305	-0.2289	-1.03768	1.84646	3174785.0	1776544739.216318	0.0	1.0	-1.0	-1.0	-1.0	-1.0	-1.0	-1.0	-1.0	-1.0	0.0	marker	opened-hand	Open	8	0418
-66315.23999999999	-52773.659999999996	-101812.95	-18051.84	0.0	0.0	0.0	0.0	0.0	0.0	0.0	0.0	0.0	0.0	0.0	0.0	0.0	0.0	145.86206896551727	0.0	0.00134277	-0.052062855	1.020688305	-0.2289	-1.03768	1.84646	3174786.0	1776544739.220151	0.0	1.0	-1.0	-1.0	-1.0	-1.0	-1.0	-1.0	-1.0	-1.0	0.0	marker	opened-hand	Open	8	0418
-66231.675	-52780.545	-101691.98999999999	-17949.195	0.0	0.0	0.0	0.0	0.0	0.0	0.0	0.0	0.0	0.0	0.0	0.0	0.0	0.0	145.86206896551727	0.0	0.00134277	-0.052062855	1.020688305	-0.2289	-1.03768	1.84646	3174787.0	1776544739.220155	0.0	1.0	-1.0	-1.0	-1.0	-1.0	-1.0	-1.0	-1.0	-1.0	0.0	marker	opened-hand	Open	8	0418
-66213.27	-52780.905	-101663.86499999999	-17928.765	0.0	0.0	0.0	0.0	0.0	0.0	0.0	0.0	0.0	0.0	0.0	0.0	0.0	0.0	145.86206896551727	0.0	0.00134277	-0.052062855	1.020688305	-0.2289	-1.03768	1.84646	3174788.0	1776544739.226481	0.0	1.0	-1.0	-1.0	-1.0	-1.0	-1.0	-1.0	-1.0	-1.0	0.0	marker	opened-hand	Open	8	0418
-66039.255	-52764.255	-101534.08499999999	-17804.43	0.0	0.0	0.0	0.0	0.0	0.0	0.0	0.0	0.0	0.0	0.0	0.0	0.0	0.0	145.86206896551727	0.0	0.00134277	-0.052062855	1.020688305	-0.2289	-1.03768	1.84646	3174789.0	1776544739.226498	0.0	1.0	-1.0	-1.0	-1.0	-1.0	-1.0	-1.0	-1.0	-1.0	0.0	marker	opened-hand	Open	8	0418
-66144.465	-52752.915	-101493.09	-17734.545	0.0	0.0	0.0	0.0	0.0	0.0	0.0	0.0	0.0	0.0	0.0	0.0	0.0	0.0	145.86206896551727	0.0	0.006530745	-0.05261217	1.01269272	-0.94612	-0.32045999999999997	0.74774	3174790.0	1776544739.228133	0.0	1.0	-1.0	-1.0	-1.0	-1.0	-1.0	-1.0	-1.0	-1.0	0.0	marker	opened-hand	Open	8	0418
-66194.955	-52744.095	-101553.97499999999	-17780.715	0.0	0.0	0.0	0.0	0.0	0.0	0.0	0.0	0.0	0.0	0.0	0.0	0.0	0.0	145.86206896551727	0.0	0.006530745	-0.05261217	1.01269272	-0.94612	-0.32045999999999997	0.74774	3174791.0	1776544739.228149	0.0	1.0	-1.0	-1.0	-1.0	-1.0	-1.0	-1.0	-1.0	-1.0	0.0	marker	opened-hand	Open	8	0418
-66112.965	-52730.729999999996	-101622.915	-17862.48	0.0	0.0	0.0	0.0	0.0	0.0	0.0	0.0	0.0	0.0	0.0	0.0	0.0	0.0	145.86206896551727	0.0	0.006530745	-0.05261217	1.01269272	-0.94612	-0.32045999999999997	0.74774	3174792.0	1776544739.232223	0.0	1.0	-1.0	-1.0	-1.0	-1.0	-1.0	-1.0	-1.0	-1.0	0.0	marker	opened-hand	Open	8	0418
-65980.395	-52700.895	-101478.23999999999	-17698.995	0.0	0.0	0.0	0.0	0.0	0.0	0.0	0.0	0.0	0.0	0.0	0.0	0.0	0.0	145.86206896551727	0.0	0.006530745	-0.05261217	1.01269272	-0.94612	-0.32045999999999997	0.74774	3174793.0	1776544739.232227	0.0	1.0	-1.0	-1.0	-1.0	-1.0	-1.0	-1.0	-1.0	-1.0	0.0	marker	opened-hand	Open	8	0418
-66041.055	-52696.17	-101556.58499999999	-17785.844999999998	0.0	0.0	0.0	0.0	0.0	0.0	0.0	0.0	0.0	0.0	0.0	0.0	0.0	0.0	145.86206896551727	0.0	0.006530745	-0.05261217	1.01269272	-0.94612	-0.32045999999999997	0.74774	3174794.0	1776544739.236267	0.0	1.0	-1.0	-1.0	-1.0	-1.0	-1.0	-1.0	-1.0	-1.0	0.0	marker	opened-hand	Open	8	0418
-66259.845	-52717.68	-101787.39	-18001.934999999998	0.0	0.0	0.0	0.0	0.0	0.0	0.0	0.0	0.0	0.0	0.0	0.0	0.0	0.0	145.86206896551727	0.0	0.006530745	-0.05261217	1.01269272	-0.94612	-0.32045999999999997	0.74774	3174795.0	1776544739.236283	0.0	1.0	-1.0	-1.0	-1.0	-1.0	-1.0	-1.0	-1.0	-1.0	0.0	marker	opened-hand	Open	8	0418
-66266.86499999999	-52717.95	-101775.915	-17998.695	0.0	0.0	0.0	0.0	0.0	0.0	0.0	0.0	0.0	0.0	0.0	0.0	0.0	0.0	145.86206896551727	0.0	0.006530745	-0.05261217	1.01269272	-0.94612	-0.32045999999999997	0.74774	3174796.0	1776544739.240284	0.0	1.0	-1.0	-1.0	-1.0	-1.0	-1.0	-1.0	-1.0	-1.0	0.0	marker	opened-hand	Open	8	0418
-66268.845	-52712.729999999996	-101691.09	-17887.41	0.0	0.0	0.0	0.0	0.0	0.0	0.0	0.0	0.0	0.0	0.0	0.0	0.0	0.0	145.86206896551727	0.0	0.006530745	-0.05261217	1.01269272	-0.94612	-0.32045999999999997	0.74774	3174797.0	1776544739.2403	0.0	1.0	-1.0	-1.0	-1.0	-1.0	-1.0	-1.0	-1.0	-1.0	0.0	marker	opened-hand	Open	8	0418
-66236.94	-52706.61	-101546.81999999999	-17701.29	0.0	0.0	0.0	0.0	0.0	0.0	0.0	0.0	0.0	0.0	0.0	0.0	0.0	0.0	145.86206896551727	0.0	0.006530745	-0.05261217	1.01269272	-0.94612	-0.32045999999999997	0.74774	3174798.0	1776544739.24423	0.0	1.0	-1.0	-1.0	-1.0	-1.0	-1.0	-1.0	-1.0	-1.0	0.0	marker	opened-hand	Open	8	0418
-66245.22	-52694.235	-101591.73	-17755.335	0.0	0.0	0.0	0.0	0.0	0.0	0.0	0.0	0.0	0.0	0.0	0.0	0.0	0.0	145.86206896551727	0.0	0.006530745	-0.05261217	1.01269272	-0.94612	-0.32045999999999997	0.74774	3174799.0	1776544739.244246	0.0	1.0	-1.0	-1.0	-1.0	-1.0	-1.0	-1.0	-1.0	-1.0	0.0	marker	opened-hand	Open	8	0418
-66207.735	-52678.439999999995	-101497.275	-17898.165	0.0	0.0	0.0	0.0	0.0	0.0	0.0	0.0	0.0	0.0	0.0	0.0	0.0	0.0	145.86206896551727	0.0	0.012878385000000001	-0.05676255	1.011777195	-0.06104	-0.10682	0.77826	3174800.0	1776544739.2482	0.0	1.0	-1.0	-1.0	-1.0	-1.0	-1.0	-1.0	-1.0	-1.0	0.0	marker	opened-hand	Open	8	0418
-66216.465	-52679.204999999994	-101569.23	-18006.614999999998	0.0	0.0	0.0	0.0	0.0	0.0	0.0	0.0	0.0	0.0	0.0	0.0	0.0	0.0	145.86206896551727	0.0	0.012878385000000001	-0.05676255	1.011777195	-0.06104	-0.10682	0.77826	3174801.0	1776544739.248217	0.0	1.0	-1.0	-1.0	-1.0	-1.0	-1.0	-1.0	-1.0	-1.0	0.0	marker	opened-hand	Open	8	0418
-66095.505	-52691.67	-101698.73999999999	-17890.649999999998	0.0	0.0	0.0	0.0	0.0	0.0	0.0	0.0	0.0	0.0	0.0	0.0	0.0	0.0	145.86206896551727	0.0	0.012878385000000001	-0.05676255	1.011777195	-0.06104	-0.10682	0.77826	3174802.0	1776544739.254028	0.0	1.0	-1.0	-1.0	-1.0	-1.0	-1.0	-1.0	-1.0	-1.0	0.0	marker	opened-hand	Open	8	0418
-66104.81999999999	-52709.67	-101651.67	-17836.02	0.0	0.0	0.0	0.0	0.0	0.0	0.0	0.0	0.0	0.0	0.0	0.0	0.0	0.0	145.86206896551727	0.0	0.012878385000000001	-0.05676255	1.011777195	-0.06104	-0.10682	0.77826	3174803.0	1776544739.254045	0.0	1.0	-1.0	-1.0	-1.0	-1.0	-1.0	-1.0	-1.0	-1.0	0.0	marker	opened-hand	Open	8	0418
-66215.745	-52710.884999999995	-101658.51	-17928.0	0.0	0.0	0.0	0.0	0.0	0.0	0.0	0.0	0.0	0.0	0.0	0.0	0.0	0.0	145.86206896551727	0.0	0.012878385000000001	-0.05676255	1.011777195	-0.06104	-0.10682	0.77826	3174804.0	1776544739.257156	0.0	1.0	-1.0	-1.0	-1.0	-1.0	-1.0	-1.0	-1.0	-1.0	0.0	marker	opened-hand	Open	8	0418
-66071.745	-52695.09	-101526.705	-17801.235	0.0	0.0	0.0	0.0	0.0	0.0	0.0	0.0	0.0	0.0	0.0	0.0	0.0	0.0	145.86206896551727	0.0	0.012878385000000001	-0.05676255	1.011777195	-0.06104	-0.10682	0.77826	3174805.0	1776544739.257172	0.0	1.0	-1.0	-1.0	-1.0	-1.0	-1.0	-1.0	-1.0	-1.0	0.0	marker	opened-hand	Open	8	0418
-66188.61	-52694.235	-101739.42	-17977.364999999998	0.0	0.0	0.0	0.0	0.0	0.0	0.0	0.0	0.0	0.0	0.0	0.0	0.0	0.0	145.86206896551727	0.0	0.012878385000000001	-0.05676255	1.011777195	-0.06104	-0.10682	0.77826	3174806.0	1776544739.260229	0.0	1.0	-1.0	-1.0	-1.0	-1.0	-1.0	-1.0	-1.0	-1.0	0.0	marker	opened-hand	Open	8	0418
-66289.275	-52684.74	-101866.68	-18073.98	0.0	0.0	0.0	0.0	0.0	0.0	0.0	0.0	0.0	0.0	0.0	0.0	0.0	0.0	145.86206896551727	0.0	0.012878385000000001	-0.05676255	1.011777195	-0.06104	-0.10682	0.77826	3174807.0	1776544739.260246	0.0	1.0	-1.0	-1.0	-1.0	-1.0	-1.0	-1.0	-1.0	-1.0	0.0	marker	opened-hand	Open	8	0418
-66183.165	-52658.775	-101727.09	-17944.785	0.0	0.0	0.0	0.0	0.0	0.0	0.0	0.0	0.0	0.0	0.0	0.0	0.0	0.0	145.86206896551727	0.0	0.012878385000000001	-0.05676255	1.011777195	-0.06104	-0.10682	0.77826	3174808.0	1776544739.26423	0.0	1.0	-1.0	-1.0	-1.0	-1.0	-1.0	-1.0	-1.0	-1.0	0.0	marker	opened-hand	Open	8	0418
-66010.68	-52639.02	-101564.955	-17785.44	0.0	0.0	0.0	0.0	0.0	0.0	0.0	0.0	0.0	0.0	0.0	0.0	0.0	0.0	145.86206896551727	0.0	0.012878385000000001	-0.05676255	1.011777195	-0.06104	-0.10682	0.77826	3174809.0	1776544739.264234	0.0	1.0	-1.0	-1.0	-1.0	-1.0	-1.0	-1.0	-1.0	-1.0	0.0	marker	opened-hand	Open	8	0418
-66150.94499999999	-52648.424999999996	-101660.265	-17827.605	0.0	0.0	0.0	0.0	0.0	0.0	0.0	0.0	0.0	0.0	0.0	0.0	0.0	0.0	145.86206896551727	0.0	0.010681125	-0.070739565	1.020077955	5.6767199999999995	-0.01526	0.8087799999999999	3174810.0	1776544739.268307	0.0	1.0	-1.0	-1.0	-1.0	-1.0	-1.0	-1.0	-1.0	-1.0	0.0	marker	opened-hand	Open	8	0418
-66274.785	-52668.9	-101779.47	-17944.38	0.0	0.0	0.0	0.0	0.0	0.0	0.0	0.0	0.0	0.0	0.0	0.0	0.0	0.0	145.86206896551727	0.0	0.010681125	-0.070739565	1.020077955	5.6767199999999995	-0.01526	0.8087799999999999	3174811.0	1776544739.268312	0.0	1.0	-1.0	-1.0	-1.0	-1.0	-1.0	-1.0	-1.0	-1.0	0.0	marker	opened-hand	Open	8	0418
-66135.015	-52678.575	-101684.43	-17920.079999999998	0.0	0.0	0.0	0.0	0.0	0.0	0.0	0.0	0.0	0.0	0.0	0.0	0.0	0.0	145.86206896551727	0.0	0.010681125	-0.070739565	1.020077955	5.6767199999999995	-0.01526	0.8087799999999999	3174812.0	1776544739.2723	0.0	1.0	-1.0	-1.0	-1.0	-1.0	-1.0	-1.0	-1.0	-1.0	0.0	marker	opened-hand	Open	8	0418
-66268.395	-52690.545	-101670.525	-17877.915	0.0	0.0	0.0	0.0	0.0	0.0	0.0	0.0	0.0	0.0	0.0	0.0	0.0	0.0	145.86206896551727	0.0	0.010681125	-0.070739565	1.020077955	5.6767199999999995	-0.01526	0.8087799999999999	3174813.0	1776544739.272317	0.0	1.0	-1.0	-1.0	-1.0	-1.0	-1.0	-1.0	-1.0	-1.0	0.0	marker	opened-hand	Open	8	0418
-66163.815	-52684.155	-101529.58499999999	-17757.18	0.0	0.0	0.0	0.0	0.0	0.0	0.0	0.0	0.0	0.0	0.0	0.0	0.0	0.0	145.86206896551727	0.0	0.010681125	-0.070739565	1.020077955	5.6767199999999995	-0.01526	0.8087799999999999	3174814.0	1776544739.276374	0.0	1.0	-1.0	-1.0	-1.0	-1.0	-1.0	-1.0	-1.0	-1.0	0.0	marker	opened-hand	Open	8	0418
-66098.97	-52673.445	-101590.69499999999	-17855.415	0.0	0.0	0.0	0.0	0.0	0.0	0.0	0.0	0.0	0.0	0.0	0.0	0.0	0.0	145.86206896551727	0.0	0.010681125	-0.070739565	1.020077955	5.6767199999999995	-0.01526	0.8087799999999999	3174815.0	1776544739.276392	0.0	1.0	-1.0	-1.0	-1.0	-1.0	-1.0	-1.0	-1.0	-1.0	0.0	marker	opened-hand	Open	8	0418
-66164.48999999999	-52666.515	-101619.26999999999	-17841.69	0.0	0.0	0.0	0.0	0.0	0.0	0.0	0.0	0.0	0.0	0.0	0.0	0.0	0.0	145.86206896551727	0.0	0.010681125	-0.070739565	1.020077955	5.6767199999999995	-0.01526	0.8087799999999999	3174816.0	1776544739.280371	0.0	1.0	-1.0	-1.0	-1.0	-1.0	-1.0	-1.0	-1.0	-1.0	0.0	marker	opened-hand	Open	8	0418
-66163.36499999999	-52669.935	-101702.61	-17932.815	0.0	0.0	0.0	0.0	0.0	0.0	0.0	0.0	0.0	0.0	0.0	0.0	0.0	0.0	145.86206896551727	0.0	0.010681125	-0.070739565	1.020077955	5.6767199999999995	-0.01526	0.8087799999999999	3174817.0	1776544739.280387	0.0	1.0	-1.0	-1.0	-1.0	-1.0	-1.0	-1.0	-1.0	-1.0	0.0	marker	opened-hand	Open	8	0418
-66138.12	-52672.365	-101738.87999999999	-18021.87	0.0	0.0	0.0	0.0	0.0	0.0	0.0	0.0	0.0	0.0	0.0	0.0	0.0	0.0	145.86206896551727	0.0	0.010681125	-0.070739565	1.020077955	5.6767199999999995	-0.01526	0.8087799999999999	3174818.0	1776544739.284395	0.0	1.0	-1.0	-1.0	-1.0	-1.0	-1.0	-1.0	-1.0	-1.0	0.0	marker	opened-hand	Open	8	0418
-66182.22	-52667.235	-101658.825	-17898.21	0.0	0.0	0.0	0.0	0.0	0.0	0.0	0.0	0.0	0.0	0.0	0.0	0.0	0.0	145.86206896551727	0.0	0.010681125	-0.070739565	1.020077955	5.6767199999999995	-0.01526	0.8087799999999999	3174819.0	1776544739.28441	0.0	1.0	-1.0	-1.0	-1.0	-1.0	-1.0	-1.0	-1.0	-1.0	0.0	marker	opened-hand	Open	8	0418
-66332.565	-52667.415	-101730.42	-17928.989999999998	0.0	0.0	0.0	0.0	0.0	0.0	0.0	0.0	0.0	0.0	0.0	0.0	0.0	0.0	145.86206896551727	0.0	0.00500487	-0.06408675	1.01867415	3.4945399999999998	-0.4578	-0.32045999999999997	3174820.0	1776544739.288387	0.0	1.0	-1.0	-1.0	-1.0	-1.0	-1.0	-1.0	-1.0	-1.0	0.0	marker	opened-hand	Open	8	0418
-66297.465	-52669.845	-101776.59	-17989.559999999998	0.0	0.0	0.0	0.0	0.0	0.0	0.0	0.0	0.0	0.0	0.0	0.0	0.0	0.0	145.86206896551727	0.0	0.00500487	-0.06408675	1.01867415	3.4945399999999998	-0.4578	-0.32045999999999997	3174821.0	1776544739.288403	0.0	1.0	-1.0	-1.0	-1.0	-1.0	-1.0	-1.0	-1.0	-1.0	0.0	marker	opened-hand	Open	8	0418
-66205.035	-52669.215	-101743.875	-17983.26	0.0	0.0	0.0	0.0	0.0	0.0	0.0	0.0	0.0	0.0	0.0	0.0	0.0	0.0	145.86206896551727	0.0	0.00500487	-0.06408675	1.01867415	3.4945399999999998	-0.4578	-0.32045999999999997	3174822.0	1776544739.29243	0.0	1.0	-1.0	-1.0	-1.0	-1.0	-1.0	-1.0	-1.0	-1.0	0.0	marker	opened-hand	Open	8	0418
-66239.81999999999	-52671.78	-101776.905	-18021.285	0.0	0.0	0.0	0.0	0.0	0.0	0.0	0.0	0.0	0.0	0.0	0.0	0.0	0.0	145.86206896551727	0.0	0.00500487	-0.06408675	1.01867415	3.4945399999999998	-0.4578	-0.32045999999999997	3174823.0	1776544739.292445	0.0	1.0	-1.0	-1.0	-1.0	-1.0	-1.0	-1.0	-1.0	-1.0	0.0	marker	opened-hand	Open	8	0418
-66111.84	-52651.439999999995	-101585.51999999999	-17832.555	0.0	0.0	0.0	0.0	0.0	0.0	0.0	0.0	0.0	0.0	0.0	0.0	0.0	0.0	145.86206896551727	0.0	0.00500487	-0.06408675	1.01867415	3.4945399999999998	-0.4578	-0.32045999999999997	3174824.0	1776544739.296368	0.0	1.0	-1.0	-1.0	-1.0	-1.0	-1.0	-1.0	-1.0	-1.0	0.0	marker	opened-hand	Open	8	0418
-65634.61499999999	-52612.29	-101070.58499999999	-17312.805	0.0	0.0	0.0	0.0	0.0	0.0	0.0	0.0	0.0	0.0	0.0	0.0	0.0	0.0	145.86206896551727	0.0	0.00500487	-0.06408675	1.01867415	3.4945399999999998	-0.4578	-0.32045999999999997	3174825.0	1776544739.296385	0.0	1.0	-1.0	-1.0	-1.0	-1.0	-1.0	-1.0	-1.0	-1.0	0.0	marker	opened-hand	Open	8	0418
-66101.58	-52635.465	-101457.54	-17665.29	0.0	0.0	0.0	0.0	0.0	0.0	0.0	0.0	0.0	0.0	0.0	0.0	0.0	0.0	145.86206896551727	0.0	0.00500487	-0.06408675	1.01867415	3.4945399999999998	-0.4578	-0.32045999999999997	3174826.0	1776544739.30057	0.0	1.0	-1.0	-1.0	-1.0	-1.0	-1.0	-1.0	-1.0	-1.0	0.0	marker	opened-hand	Open	8	0418
-66504.735	-52665.255	-102005.81999999999	-18221.309999999998	0.0	0.0	0.0	0.0	0.0	0.0	0.0	0.0	0.0	0.0	0.0	0.0	0.0	0.0	145.86206896551727	0.0	0.00500487	-0.06408675	1.01867415	3.4945399999999998	-0.4578	-0.32045999999999997	3174827.0	1776544739.300586	0.0	1.0	-1.0	-1.0	-1.0	-1.0	-1.0	-1.0	-1.0	-1.0	0.0	marker	opened-hand	Open	8	0418
-66336.93	-52657.695	-101849.22	-18092.295	0.0	0.0	0.0	0.0	0.0	0.0	0.0	0.0	0.0	0.0	0.0	0.0	0.0	0.0	145.86206896551727	0.0	0.00500487	-0.06408675	1.01867415	3.4945399999999998	-0.4578	-0.32045999999999997	3174828.0	1776544739.304509	0.0	1.0	-1.0	-1.0	-1.0	-1.0	-1.0	-1.0	-1.0	-1.0	0.0	marker	opened-hand	Open	8	0418
-66146.31	-52643.52	-101601.855	-17849.295	0.0	0.0	0.0	0.0	0.0	0.0	0.0	0.0	0.0	0.0	0.0	0.0	0.0	0.0	145.86206896551727	0.0	0.00500487	-0.06408675	1.01867415	3.4945399999999998	-0.4578	-0.32045999999999997	3174829.0	1776544739.304526	0.0	1.0	-1.0	-1.0	-1.0	-1.0	-1.0	-1.0	-1.0	-1.0	0.0	marker	opened-hand	Open	8	0418
-66038.175	-52638.435	-101435.715	-17680.23	0.0	0.0	0.0	0.0	0.0	0.0	0.0	0.0	0.0	0.0	0.0	0.0	0.0	0.0	145.86206896551727	0.0	0.010192845	-0.050842155	1.01598861	0.33571999999999996	-0.07629999999999999	1.17502	3174830.0	1776544739.308501	0.0	1.0	-1.0	-1.0	-1.0	-1.0	-1.0	-1.0	-1.0	-1.0	0.0	marker	opened-hand	Open	8	0418
-66207.87	-52649.235	-101561.985	-17814.51	0.0	0.0	0.0	0.0	0.0	0.0	0.0	0.0	0.0	0.0	0.0	0.0	0.0	0.0	145.86206896551727	0.0	0.010192845	-0.050842155	1.01598861	0.33571999999999996	-0.07629999999999999	1.17502	3174831.0	1776544739.308508	0.0	1.0	-1.0	-1.0	-1.0	-1.0	-1.0	-1.0	-1.0	-1.0	0.0	marker	opened-hand	Open	8	0418
-66282.56999999999	-52661.88	-101720.25	-18028.98	0.0	0.0	0.0	0.0	0.0	0.0	0.0	0.0	0.0	0.0	0.0	0.0	0.0	0.0	145.86206896551727	0.0	0.010192845	-0.050842155	1.01598861	0.33571999999999996	-0.07629999999999999	1.17502	3174832.0	1776544739.312459	0.0	1.0	-1.0	-1.0	-1.0	-1.0	-1.0	-1.0	-1.0	-1.0	0.0	marker	opened-hand	Open	8	0418
-66179.655	-52647.57	-101709.94499999999	-17924.265	0.0	0.0	0.0	0.0	0.0	0.0	0.0	0.0	0.0	0.0	0.0	0.0	0.0	0.0	145.86206896551727	0.0	0.010192845	-0.050842155	1.01598861	0.33571999999999996	-0.07629999999999999	1.17502	3174833.0	1776544739.312476	0.0	1.0	-1.0	-1.0	-1.0	-1.0	-1.0	-1.0	-1.0	-1.0	0.0	marker	opened-hand	Open	8	0418
-66180.015	-52639.695	-101779.37999999999	-17918.19	0.0	0.0	0.0	0.0	0.0	0.0	0.0	0.0	0.0	0.0	0.0	0.0	0.0	0.0	145.86206896551727	0.0	0.010192845	-0.050842155	1.01598861	0.33571999999999996	-0.07629999999999999	1.17502	3174834.0	1776544739.316496	0.0	1.0	-1.0	-1.0	-1.0	-1.0	-1.0	-1.0	-1.0	-1.0	0.0	marker	opened-hand	Open	8	0418
-66067.47	-52630.65	-101616.345	-17820.45	0.0	0.0	0.0	0.0	0.0	0.0	0.0	0.0	0.0	0.0	0.0	0.0	0.0	0.0	145.86206896551727	0.0	0.010192845	-0.050842155	1.01598861	0.33571999999999996	-0.07629999999999999	1.17502	3174835.0	1776544739.316512	0.0	1.0	-1.0	-1.0	-1.0	-1.0	-1.0	-1.0	-1.0	-1.0	0.0	marker	opened-hand	Open	8	0418
-66190.815	-52642.845	-101626.605	-17852.85	0.0	0.0	0.0	0.0	0.0	0.0	0.0	0.0	0.0	0.0	0.0	0.0	0.0	0.0	145.86206896551727	0.0	0.010192845	-0.050842155	1.01598861	0.33571999999999996	-0.07629999999999999	1.17502	3174836.0	1776544739.320511	0.0	1.0	-1.0	-1.0	-1.0	-1.0	-1.0	-1.0	-1.0	-1.0	0.0	marker	opened-hand	Open	8	0418
-66154.545	-52636.814999999995	-101629.62	-17890.245	0.0	0.0	0.0	0.0	0.0	0.0	0.0	0.0	0.0	0.0	0.0	0.0	0.0	0.0	145.86206896551727	0.0	0.010192845	-0.050842155	1.01598861	0.33571999999999996	-0.07629999999999999	1.17502	3174837.0	1776544739.320528	0.0	1.0	-1.0	-1.0	-1.0	-1.0	-1.0	-1.0	-1.0	-1.0	0.0	marker	opened-hand	Open	8	0418
-66144.915	-52621.155	-101578.00499999999	-17891.82	0.0	0.0	0.0	0.0	0.0	0.0	0.0	0.0	0.0	0.0	0.0	0.0	0.0	0.0	145.86206896551727	0.0	0.010192845	-0.050842155	1.01598861	0.33571999999999996	-0.07629999999999999	1.17502	3174838.0	1776544739.324534	0.0	1.0	-1.0	-1.0	-1.0	-1.0	-1.0	-1.0	-1.0	-1.0	0.0	marker	opened-hand	Open	8	0418
-66192.705	-52594.2	-101564.955	-17910.54	0.0	0.0	0.0	0.0	0.0	0.0	0.0	0.0	0.0	0.0	0.0	0.0	0.0	0.0	145.86206896551727	0.0	0.010192845	-0.050842155	1.01598861	0.33571999999999996	-0.07629999999999999	1.17502	3174839.0	1776544739.324549	0.0	1.0	-1.0	-1.0	-1.0	-1.0	-1.0	-1.0	-1.0	-1.0	0.0	marker	opened-hand	Open	8	0418
-66200.805	-52511.04	-101711.51999999999	-17897.219999999998	0.0	0.0	0.0	0.0	0.0	0.0	0.0	0.0	0.0	0.0	0.0	0.0	0.0	0.0	145.86206896551727	0.0	0.008972145	-0.05444322	1.015439295	0.9003399999999999	-0.07629999999999999	0.8392999999999999	3174840.0	1776544739.328549	0.0	1.0	-1.0	-1.0	-1.0	-1.0	-1.0	-1.0	-1.0	-1.0	0.0	marker	opened-hand	Open	8	0418
-66093.93	-52470.854999999996	-101641.095	-17753.895	0.0	0.0	0.0	0.0	0.0	0.0	0.0	0.0	0.0	0.0	0.0	0.0	0.0	0.0	145.86206896551727	0.0	0.008972145	-0.05444322	1.015439295	0.9003399999999999	-0.07629999999999999	0.8392999999999999	3174841.0	1776544739.328566	0.0	1.0	-1.0	-1.0	-1.0	-1.0	-1.0	-1.0	-1.0	-1.0	0.0	marker	opened-hand	Open	8	0418
-66107.61	-52478.865	-101621.61	-17768.204999999998	0.0	0.0	0.0	0.0	0.0	0.0	0.0	0.0	0.0	0.0	0.0	0.0	0.0	0.0	145.86206896551727	0.0	0.008972145	-0.05444322	1.015439295	0.9003399999999999	-0.07629999999999999	0.8392999999999999	3174842.0	1776544739.332519	0.0	1.0	-1.0	-1.0	-1.0	-1.0	-1.0	-1.0	-1.0	-1.0	0.0	marker	opened-hand	Open	8	0418
-66235.905	-52493.265	-101780.55	-17937.315	0.0	0.0	0.0	0.0	0.0	0.0	0.0	0.0	0.0	0.0	0.0	0.0	0.0	0.0	145.86206896551727	0.0	0.008972145	-0.05444322	1.015439295	0.9003399999999999	-0.07629999999999999	0.8392999999999999	3174843.0	1776544739.332536	0.0	1.0	-1.0	-1.0	-1.0	-1.0	-1.0	-1.0	-1.0	-1.0	0.0	marker	opened-hand	Open	8	0418
-66322.98	-52501.365	-101692.8	-17888.13	0.0	0.0	0.0	0.0	0.0	0.0	0.0	0.0	0.0	0.0	0.0	0.0	0.0	0.0	145.86206896551727	0.0	0.008972145	-0.05444322	1.015439295	0.9003399999999999	-0.07629999999999999	0.8392999999999999	3174844.0	1776544739.336514	0.0	1.0	-1.0	-1.0	-1.0	-1.0	-1.0	-1.0	-1.0	-1.0	0.0	marker	opened-hand	Open	8	0418
-66239.505	-52510.275	-101632.00499999999	-17837.82	0.0	0.0	0.0	0.0	0.0	0.0	0.0	0.0	0.0	0.0	0.0	0.0	0.0	0.0	145.86206896551727	0.0	0.008972145	-0.05444322	1.015439295	0.9003399999999999	-0.07629999999999999	0.8392999999999999	3174845.0	1776544739.33653	0.0	1.0	-1.0	-1.0	-1.0	-1.0	-1.0	-1.0	-1.0	-1.0	0.0	marker	opened-hand	Open	8	0418
-65745.72	-52493.354999999996	-101455.605	-17663.399999999998	0.0	0.0	0.0	0.0	0.0	0.0	0.0	0.0	0.0	0.0	0.0	0.0	0.0	0.0	145.86206896551727	0.0	0.008972145	-0.05444322	1.015439295	0.9003399999999999	-0.07629999999999999	0.8392999999999999	3174846.0	1776544739.340511	0.0	1.0	-1.0	-1.0	-1.0	-1.0	-1.0	-1.0	-1.0	-1.0	0.0	marker	opened-hand	Open	8	0418
-66104.505	-52512.03	-101687.985	-17888.715	0.0	0.0	0.0	0.0	0.0	0.0	0.0	0.0	0.0	0.0	0.0	0.0	0.0	0.0	145.86206896551727	0.0	0.008972145	-0.05444322	1.015439295	0.9003399999999999	-0.07629999999999999	0.8392999999999999	3174847.0	1776544739.340527	0.0	1.0	-1.0	-1.0	-1.0	-1.0	-1.0	-1.0	-1.0	-1.0	0.0	marker	opened-hand	Open	8	0418
-66303.855	-52518.42	-101811.64499999999	-17988.48	0.0	0.0	0.0	0.0	0.0	0.0	0.0	0.0	0.0	0.0	0.0	0.0	0.0	0.0	145.86206896551727	0.0	0.008972145	-0.05444322	1.015439295	0.9003399999999999	-0.07629999999999999	0.8392999999999999	3174848.0	1776544739.344593	0.0	1.0	-1.0	-1.0	-1.0	-1.0	-1.0	-1.0	-1.0	-1.0	0.0	marker	opened-hand	Open	8	0418
-66372.61499999999	-52510.229999999996	-101869.65	-18059.175	0.0	0.0	0.0	0.0	0.0	0.0	0.0	0.0	0.0	0.0	0.0	0.0	0.0	0.0	145.86206896551727	0.0	0.008972145	-0.05444322	1.015439295	0.9003399999999999	-0.07629999999999999	0.8392999999999999	3174849.0	1776544739.344616	0.0	1.0	-1.0	-1.0	-1.0	-1.0	-1.0	-1.0	-1.0	-1.0	0.0	marker	opened-hand	Open	8	0418
-66295.17	-52481.43	-101698.47	-17910.09	0.0	0.0	0.0	0.0	0.0	0.0	0.0	0.0	0.0	0.0	0.0	0.0	0.0	0.0	145.86206896551727	0.0	0.00720213	-0.05834946	1.014828945	1.25132	0.16785999999999998	0.71722	3174850.0	1776544739.348343	0.0	1.0	-1.0	-1.0	-1.0	-1.0	-1.0	-1.0	-1.0	-1.0	0.0	marker	opened-hand	Open	8	0418
-66287.7	-52470.045	-101659.23	-17890.785	0.0	0.0	0.0	0.0	0.0	0.0	0.0	0.0	0.0	0.0	0.0	0.0	0.0	0.0	145.86206896551727	0.0	0.00720213	-0.05834946	1.014828945	1.25132	0.16785999999999998	0.71722	3174851.0	1776544739.348359	0.0	1.0	-1.0	-1.0	-1.0	-1.0	-1.0	-1.0	-1.0	-1.0	0.0	marker	opened-hand	Open	8	0418
-66171.015	-52476.93	-101683.305	-17902.17	0.0	0.0	0.0	0.0	0.0	0.0	0.0	0.0	0.0	0.0	0.0	0.0	0.0	0.0	145.86206896551727	0.0	0.00720213	-0.05834946	1.014828945	1.25132	0.16785999999999998	0.71722	3174852.0	1776544739.353351	0.0	1.0	-1.0	-1.0	-1.0	-1.0	-1.0	-1.0	-1.0	-1.0	0.0	marker	opened-hand	Open	8	0418
-66111.84	-52488.99	-101622.64499999999	-17883.18	0.0	0.0	0.0	0.0	0.0	0.0	0.0	0.0	0.0	0.0	0.0	0.0	0.0	0.0	145.86206896551727	0.0	0.00720213	-0.05834946	1.014828945	1.25132	0.16785999999999998	0.71722	3174853.0	1776544739.353368	0.0	1.0	-1.0	-1.0	-1.0	-1.0	-1.0	-1.0	-1.0	-1.0	0.0	marker	opened-hand	Open	8	0418
-66179.295	-52510.229999999996	-101586.465	-17819.28	0.0	0.0	0.0	0.0	0.0	0.0	0.0	0.0	0.0	0.0	0.0	0.0	0.0	0.0	145.86206896551727	0.0	0.00720213	-0.05834946	1.014828945	1.25132	0.16785999999999998	0.71722	3174854.0	1776544739.359316	0.0	1.0	-1.0	-1.0	-1.0	-1.0	-1.0	-1.0	-1.0	-1.0	0.0	marker	opened-hand	Open	8	0418
-66157.38	-52527.6	-101577.87	-17823.645	0.0	0.0	0.0	0.0	0.0	0.0	0.0	0.0	0.0	0.0	0.0	0.0	0.0	0.0	145.86206896551727	0.0	0.00720213	-0.05834946	1.014828945	1.25132	0.16785999999999998	0.71722	3174855.0	1776544739.359333	0.0	1.0	-1.0	-1.0	-1.0	-1.0	-1.0	-1.0	-1.0	-1.0	0.0	marker	opened-hand	Open	8	0418
-66190.14	-52528.365	-101633.535	-17853.165	0.0	0.0	0.0	0.0	0.0	0.0	0.0	0.0	0.0	0.0	0.0	0.0	0.0	0.0	145.86206896551727	0.0	0.00720213	-0.05834946	1.014828945	1.25132	0.16785999999999998	0.71722	3174856.0	1776544739.362114	0.0	1.0	-1.0	-1.0	-1.0	-1.0	-1.0	-1.0	-1.0	-1.0	0.0	marker	opened-hand	Open	8	0418
-65880.315	-52493.4	-101351.79	-17543.745	0.0	0.0	0.0	0.0	0.0	0.0	0.0	0.0	0.0	0.0	0.0	0.0	0.0	0.0	145.86206896551727	0.0	0.00720213	-0.05834946	1.014828945	1.25132	0.16785999999999998	0.71722	3174857.0	1776544739.36213	0.0	1.0	-1.0	-1.0	-1.0	-1.0	-1.0	-1.0	-1.0	-1.0	0.0	marker	opened-hand	Open	8	0418
-65912.31	-52484.445	-101334.78	-17535.329999999998	0.0	0.0	0.0	0.0	0.0	0.0	0.0	0.0	0.0	0.0	0.0	0.0	0.0	0.0	145.86206896551727	0.0	0.00720213	-0.05834946	1.014828945	1.25132	0.16785999999999998	0.71722	3174858.0	1776544739.365589	0.0	1.0	-1.0	-1.0	-1.0	-1.0	-1.0	-1.0	-1.0	-1.0	0.0	marker	opened-hand	Open	8	0418
-66214.305	-52501.814999999995	-101663.86499999999	-17935.695	0.0	0.0	0.0	0.0	0.0	0.0	0.0	0.0	0.0	0.0	0.0	0.0	0.0	0.0	145.86206896551727	0.0	0.00720213	-0.05834946	1.014828945	1.25132	0.16785999999999998	0.71722	3174859.0	1776544739.365605	0.0	1.0	-1.0	-1.0	-1.0	-1.0	-1.0	-1.0	-1.0	-1.0	0.0	marker	opened-hand	Open	8	0418
-65973.59999999999	-52484.265	-101533.815	-17786.52	0.0	0.0	0.0	0.0	0.0	0.0	0.0	0.0	0.0	0.0	0.0	0.0	0.0	0.0	145.86206896551727	0.0	0.01196286	-0.069518865	1.016293785	3.0825199999999997	0.16785999999999998	-0.56462	3174860.0	1776544739.368827	0.0	1.0	-1.0	-1.0	-1.0	-1.0	-1.0	-1.0	-1.0	-1.0	0.0	marker	opened-hand	Open	8	0418
-66330.22499999999	-52511.625	-101859.66	-17999.774999999998	0.0	0.0	0.0	0.0	0.0	0.0	0.0	0.0	0.0	0.0	0.0	0.0	0.0	0.0	145.86206896551727	0.0	0.01196286	-0.069518865	1.016293785	3.0825199999999997	0.16785999999999998	-0.56462	3174861.0	1776544739.368843	0.0	1.0	-1.0	-1.0	-1.0	-1.0	-1.0	-1.0	-1.0	-1.0	0.0	marker	opened-hand	Open	8	0418
-66413.205	-52520.895	-101894.89499999999	-18083.565	0.0	0.0	0.0	0.0	0.0	0.0	0.0	0.0	0.0	0.0	0.0	0.0	0.0	0.0	145.86206896551727	0.0	0.01196286	-0.069518865	1.016293785	3.0825199999999997	0.16785999999999998	-0.56462	3174862.0	1776544739.372601	0.0	1.0	-1.0	-1.0	-1.0	-1.0	-1.0	-1.0	-1.0	-1.0	0.0	marker	opened-hand	Open	8	0418
-66322.53	-52520.939999999995	-101849.48999999999	-18079.605	0.0	0.0	0.0	0.0	0.0	0.0	0.0	0.0	0.0	0.0	0.0	0.0	0.0	0.0	145.86206896551727	0.0	0.01196286	-0.069518865	1.016293785	3.0825199999999997	0.16785999999999998	-0.56462	3174863.0	1776544739.372617	0.0	1.0	-1.0	-1.0	-1.0	-1.0	-1.0	-1.0	-1.0	-1.0	0.0	marker	opened-hand	Open	8	0418
-66322.035	-52533.63	-101798.86499999999	-18058.454999999998	0.0	0.0	0.0	0.0	0.0	0.0	0.0	0.0	0.0	0.0	0.0	0.0	0.0	0.0	145.86206896551727	0.0	0.01196286	-0.069518865	1.016293785	3.0825199999999997	0.16785999999999998	-0.56462	3174864.0	1776544739.376706	0.0	1.0	-1.0	-1.0	-1.0	-1.0	-1.0	-1.0	-1.0	-1.0	0.0	marker	opened-hand	Open	8	0418
-66145.815	-52525.395	-101633.715	-17884.485	0.0	0.0	0.0	0.0	0.0	0.0	0.0	0.0	0.0	0.0	0.0	0.0	0.0	0.0	145.86206896551727	0.0	0.01196286	-0.069518865	1.016293785	3.0825199999999997	0.16785999999999998	-0.56462	3174865.0	1776544739.376733	0.0	1.0	-1.0	-1.0	-1.0	-1.0	-1.0	-1.0	-1.0	-1.0	0.0	marker	opened-hand	Open	8	0418
-66127.005	-52515.585	-101633.355	-17837.954999999998	0.0	0.0	0.0	0.0	0.0	0.0	0.0	0.0	0.0	0.0	0.0	0.0	0.0	0.0	145.86206896551727	0.0	0.01196286	-0.069518865	1.016293785	3.0825199999999997	0.16785999999999998	-0.56462	3174866.0	1776544739.380616	0.0	1.0	-1.0	-1.0	-1.0	-1.0	-1.0	-1.0	-1.0	-1.0	0.0	marker	opened-hand	Open	8	0418
-66300.705	-52527.24	-101807.73	-18003.465	0.0	0.0	0.0	0.0	0.0	0.0	0.0	0.0	0.0	0.0	0.0	0.0	0.0	0.0	145.86206896551727	0.0	0.01196286	-0.069518865	1.016293785	3.0825199999999997	0.16785999999999998	-0.56462	3174867.0	1776544739.380637	0.0	1.0	-1.0	-1.0	-1.0	-1.0	-1.0	-1.0	-1.0	-1.0	0.0	marker	opened-hand	Open	8	0418
-66159.405	-52533.54	-101719.665	-17948.024999999998	0.0	0.0	0.0	0.0	0.0	0.0	0.0	0.0	0.0	0.0	0.0	0.0	0.0	0.0	145.86206896551727	0.0	0.01196286	-0.069518865	1.016293785	3.0825199999999997	0.16785999999999998	-0.56462	3174868.0	1776544739.38472	0.0	1.0	-1.0	-1.0	-1.0	-1.0	-1.0	-1.0	-1.0	-1.0	0.0	marker	opened-hand	Open	8	0418
-66152.655	-52548.795	-101691.045	-17878.77	0.0	0.0	0.0	0.0	0.0	0.0	0.0	0.0	0.0	0.0	0.0	0.0	0.0	0.0	145.86206896551727	0.0	0.01196286	-0.069518865	1.016293785	3.0825199999999997	0.16785999999999998	-0.56462	3174869.0	1776544739.38474	0.0	1.0	-1.0	-1.0	-1.0	-1.0	-1.0	-1.0	-1.0	-1.0	0.0	marker	opened-hand	Open	8	0418
-66177.9	-52568.82	-101706.97499999999	-17884.485	0.0	0.0	0.0	0.0	0.0	0.0	0.0	0.0	0.0	0.0	0.0	0.0	0.0	0.0	145.86206896551727	0.0	0.005920395	-0.06982404	1.017148275	4.577999999999999	0.5341	-1.05294	3174870.0	1776544739.388728	0.0	1.0	-1.0	-1.0	-1.0	-1.0	-1.0	-1.0	-1.0	-1.0	0.0	marker	opened-hand	Open	8	0418
-66235.31999999999	-52576.829999999994	-101772.81	-17970.93	0.0	0.0	0.0	0.0	0.0	0.0	0.0	0.0	0.0	0.0	0.0	0.0	0.0	0.0	145.86206896551727	0.0	0.005920395	-0.06982404	1.017148275	4.577999999999999	0.5341	-1.05294	3174871.0	1776544739.388747	0.0	1.0	-1.0	-1.0	-1.0	-1.0	-1.0	-1.0	-1.0	-1.0	0.0	marker	opened-hand	Open	8	0418
-66225.19499999999	-52573.14	-101726.73	-17932.454999999998	0.0	0.0	0.0	0.0	0.0	0.0	0.0	0.0	0.0	0.0	0.0	0.0	0.0	0.0	145.86206896551727	0.0	0.005920395	-0.06982404	1.017148275	4.577999999999999	0.5341	-1.05294	3174872.0	1776544739.392642	0.0	1.0	-1.0	-1.0	-1.0	-1.0	-1.0	-1.0	-1.0	-1.0	0.0	marker	opened-hand	Open	8	0418
-66170.025	-52568.64	-101704.185	-17927.01	0.0	0.0	0.0	0.0	0.0	0.0	0.0	0.0	0.0	0.0	0.0	0.0	0.0	0.0	145.86206896551727	0.0	0.005920395	-0.06982404	1.017148275	4.577999999999999	0.5341	-1.05294	3174873.0	1776544739.392684	0.0	1.0	-1.0	-1.0	-1.0	-1.0	-1.0	-1.0	-1.0	-1.0	0.0	marker	opened-hand	Open	8	0418
-66125.47499999999	-52568.369999999995	-101615.58	-17822.969999999998	0.0	0.0	0.0	0.0	0.0	0.0	0.0	0.0	0.0	0.0	0.0	0.0	0.0	0.0	145.86206896551727	0.0	0.005920395	-0.06982404	1.017148275	4.577999999999999	0.5341	-1.05294	3174874.0	1776544739.39669	0.0	1.0	-1.0	-1.0	-1.0	-1.0	-1.0	-1.0	-1.0	-1.0	0.0	marker	opened-hand	Open	8	0418
-66080.745	-52562.79	-101539.53	-17730.495	0.0	0.0	0.0	0.0	0.0	0.0	0.0	0.0	0.0	0.0	0.0	0.0	0.0	0.0	145.86206896551727	0.0	0.005920395	-0.06982404	1.017148275	4.577999999999999	0.5341	-1.05294	3174875.0	1776544739.396708	0.0	1.0	-1.0	-1.0	-1.0	-1.0	-1.0	-1.0	-1.0	-1.0	0.0	marker	opened-hand	Open	8	0418
-65952.0	-52546.905	-101475.54	-17671.364999999998	0.0	0.0	0.0	0.0	0.0	0.0	0.0	0.0	0.0	0.0	0.0	0.0	0.0	0.0	145.86206896551727	0.0	0.005920395	-0.06982404	1.017148275	4.577999999999999	0.5341	-1.05294	3174876.0	1776544739.400521	0.0	1.0	-1.0	-1.0	-1.0	-1.0	-1.0	-1.0	-1.0	-1.0	0.0	marker	opened-hand	Open	8	0418
-66097.935	-52566.93	-101632.36499999999	-17852.445	0.0	0.0	0.0	0.0	0.0	0.0	0.0	0.0	0.0	0.0	0.0	0.0	0.0	0.0	145.86206896551727	0.0	0.005920395	-0.06982404	1.017148275	4.577999999999999	0.5341	-1.05294	3174877.0	1776544739.400531	0.0	1.0	-1.0	-1.0	-1.0	-1.0	-1.0	-1.0	-1.0	-1.0	0.0	marker	opened-hand	Open	8	0418
-66249.405	-52586.64	-101741.48999999999	-17947.98	0.0	0.0	0.0	0.0	0.0	0.0	0.0	0.0	0.0	0.0	0.0	0.0	0.0	0.0	145.86206896551727	0.0	0.005920395	-0.06982404	1.017148275	4.577999999999999	0.5341	-1.05294	3174878.0	1776544739.404804	0.0	1.0	-1.0	-1.0	-1.0	-1.0	-1.0	-1.0	-1.0	-1.0	0.0	marker	opened-hand	Open	8	0418
-66213.315	-52589.34	-101642.48999999999	-17863.245	0.0	0.0	0.0	0.0	0.0	0.0	0.0	0.0	0.0	0.0	0.0	0.0	0.0	0.0	145.86206896551727	0.0	0.005920395	-0.06982404	1.017148275	4.577999999999999	0.5341	-1.05294	3174879.0	1776544739.404824	0.0	1.0	-1.0	-1.0	-1.0	-1.0	-1.0	-1.0	-1.0	-1.0	0.0	marker	opened-hand	Open	8	0418
-66228.93	-52603.244999999995	-101694.285	-17904.059999999998	0.0	0.0	0.0	0.0	0.0	0.0	0.0	0.0	0.0	0.0	0.0	0.0	0.0	0.0	145.86206896551727	0.0	0.007629375	-0.05603013	1.0152561900000001	2.7010199999999998	0.33571999999999996	-0.36624	3174880.0	1776544739.408744	0.0	1.0	-1.0	-1.0	-1.0	-1.0	-1.0	-1.0	-1.0	-1.0	0.0	marker	opened-hand	Open	8	0418
-66243.555	-52610.85	-101677.41	-17889.57	0.0	0.0	0.0	0.0	0.0	0.0	0.0	0.0	0.0	0.0	0.0	0.0	0.0	0.0	145.86206896551727	0.0	0.007629375	-0.05603013	1.0152561900000001	2.7010199999999998	0.33571999999999996	-0.36624	3174881.0	1776544739.408763	0.0	1.0	-1.0	-1.0	-1.0	-1.0	-1.0	-1.0	-1.0	-1.0	0.0	marker	opened-hand	Open	8	0418
-66120.345	-52610.265	-101573.37	-17821.665	0.0	0.0	0.0	0.0	0.0	0.0	0.0	0.0	0.0	0.0	0.0	0.0	0.0	0.0	145.86206896551727	0.0	0.007629375	-0.05603013	1.0152561900000001	2.7010199999999998	0.33571999999999996	-0.36624	3174882.0	1776544739.412867	0.0	1.0	-1.0	-1.0	-1.0	-1.0	-1.0	-1.0	-1.0	-1.0	0.0	marker	opened-hand	Open	8	0418
-66105.315	-52613.685	-101688.25499999999	-17894.565	0.0	0.0	0.0	0.0	0.0	0.0	0.0	0.0	0.0	0.0	0.0	0.0	0.0	0.0	145.86206896551727	0.0	0.007629375	-0.05603013	1.0152561900000001	2.7010199999999998	0.33571999999999996	-0.36624	3174883.0	1776544739.412887	0.0	1.0	-1.0	-1.0	-1.0	-1.0	-1.0	-1.0	-1.0	-1.0	0.0	marker	opened-hand	Open	8	0418
-66140.86499999999	-52618.545	-101801.745	-18041.04	0.0	0.0	0.0	0.0	0.0	0.0	0.0	0.0	0.0	0.0	0.0	0.0	0.0	0.0	145.86206896551727	0.0	0.007629375	-0.05603013	1.0152561900000001	2.7010199999999998	0.33571999999999996	-0.36624	3174884.0	1776544739.418178	0.0	1.0	-1.0	-1.0	-1.0	-1.0	-1.0	-1.0	-1.0	-1.0	0.0	marker	opened-hand	Open	8	0418
-66129.61499999999	-52612.064999999995	-101725.33499999999	-17913.735	0.0	0.0	0.0	0.0	0.0	0.0	0.0	0.0	0.0	0.0	0.0	0.0	0.0	0.0	145.86206896551727	0.0	0.007629375	-0.05603013	1.0152561900000001	2.7010199999999998	0.33571999999999996	-0.36624	3174885.0	1776544739.418196	0.0	1.0	-1.0	-1.0	-1.0	-1.0	-1.0	-1.0	-1.0	-1.0	0.0	marker	opened-hand	Open	8	0418
-66165.97499999999	-52610.22	-101604.15	-17739.63	0.0	0.0	0.0	0.0	0.0	0.0	0.0	0.0	0.0	0.0	0.0	0.0	0.0	0.0	145.86206896551727	0.0	0.007629375	-0.05603013	1.0152561900000001	2.7010199999999998	0.33571999999999996	-0.36624	3174886.0	1776544739.420791	0.0	1.0	-1.0	-1.0	-1.0	-1.0	-1.0	-1.0	-1.0	-1.0	0.0	marker	opened-hand	Open	8	0418
-66209.08499999999	-52620.345	-101674.305	-17841.239999999998	0.0	0.0	0.0	0.0	0.0	0.0	0.0	0.0	0.0	0.0	0.0	0.0	0.0	0.0	145.86206896551727	0.0	0.007629375	-0.05603013	1.0152561900000001	2.7010199999999998	0.33571999999999996	-0.36624	3174887.0	1776544739.420809	0.0	1.0	-1.0	-1.0	-1.0	-1.0	-1.0	-1.0	-1.0	-1.0	0.0	marker	opened-hand	Open	8	0418
-66258.54	-52628.265	-101771.595	-17986.68	0.0	0.0	0.0	0.0	0.0	0.0	0.0	0.0	0.0	0.0	0.0	0.0	0.0	0.0	145.86206896551727	0.0	0.007629375	-0.05603013	1.0152561900000001	2.7010199999999998	0.33571999999999996	-0.36624	3174888.0	1776544739.426957	0.0	1.0	-1.0	-1.0	-1.0	-1.0	-1.0	-1.0	-1.0	-1.0	0.0	marker	opened-hand	Open	8	0418
-65970.27	-52616.204999999994	-101527.83	-17772.39	0.0	0.0	0.0	0.0	0.0	0.0	0.0	0.0	0.0	0.0	0.0	0.0	0.0	0.0	145.86206896551727	0.0	0.007629375	-0.05603013	1.0152561900000001	2.7010199999999998	0.33571999999999996	-0.36624	3174889.0	1776544739.426975	0.0	1.0	-1.0	-1.0	-1.0	-1.0	-1.0	-1.0	-1.0	-1.0	0.0	marker	opened-hand	Open	8	0418
-65782.8	-52605.134999999995	-101368.485	-17611.785	0.0	0.0	0.0	0.0	0.0	0.0	0.0	0.0	0.0	0.0	0.0	0.0	0.0	0.0	145.86206896551727	0.0	0.013610805	-0.06274398	1.011410985	3.6624	0.35097999999999996	-1.63282	3174890.0	1776544739.42888	0.0	1.0	-1.0	-1.0	-1.0	-1.0	-1.0	-1.0	-1.0	-1.0	0.0	marker	opened-hand	Open	8	0418
-66221.235	-52621.829999999994	-101690.86499999999	-17871.434999999998	0.0	0.0	0.0	0.0	0.0	0.0	0.0	0.0	0.0	0.0	0.0	0.0	0.0	0.0	145.86206896551727	0.0	0.013610805	-0.06274398	1.011410985	3.6624	0.35097999999999996	-1.63282	3174891.0	1776544739.428911	0.0	1.0	-1.0	-1.0	-1.0	-1.0	-1.0	-1.0	-1.0	-1.0	0.0	marker	opened-hand	Open	8	0418
-66328.515	-52630.74	-101777.48999999999	-17949.87	0.0	0.0	0.0	0.0	0.0	0.0	0.0	0.0	0.0	0.0	0.0	0.0	0.0	0.0	145.86206896551727	0.0	0.013610805	-0.06274398	1.011410985	3.6624	0.35097999999999996	-1.63282	3174892.0	1776544739.43292	0.0	1.0	-1.0	-1.0	-1.0	-1.0	-1.0	-1.0	-1.0	-1.0	0.0	marker	opened-hand	Open	8	0418
-66214.215	-52614.045	-101725.73999999999	-17916.84	0.0	0.0	0.0	0.0	0.0	0.0	0.0	0.0	0.0	0.0	0.0	0.0	0.0	0.0	145.86206896551727	0.0	0.013610805	-0.06274398	1.011410985	3.6624	0.35097999999999996	-1.63282	3174893.0	1776544739.432938	0.0	1.0	-1.0	-1.0	-1.0	-1.0	-1.0	-1.0	-1.0	-1.0	0.0	marker	opened-hand	Open	8	0418
-66278.83499999999	-52609.365	-101741.48999999999	-17945.19	0.0	0.0	0.0	0.0	0.0	0.0	0.0	0.0	0.0	0.0	0.0	0.0	0.0	0.0	145.86206896551727	0.0	0.013610805	-0.06274398	1.011410985	3.6624	0.35097999999999996	-1.63282	3174894.0	1776544739.436893	0.0	1.0	-1.0	-1.0	-1.0	-1.0	-1.0	-1.0	-1.0	-1.0	0.0	marker	opened-hand	Open	8	0418
-66215.11499999999	-52568.954999999994	-101582.50499999999	-17853.12	0.0	0.0	0.0	0.0	0.0	0.0	0.0	0.0	0.0	0.0	0.0	0.0	0.0	0.0	145.86206896551727	0.0	0.013610805	-0.06274398	1.011410985	3.6624	0.35097999999999996	-1.63282	3174895.0	1776544739.436912	0.0	1.0	-1.0	-1.0	-1.0	-1.0	-1.0	-1.0	-1.0	-1.0	0.0	marker	opened-hand	Open	8	0418
-66064.77	-52465.005	-101483.37	-17769.555	0.0	0.0	0.0	0.0	0.0	0.0	0.0	0.0	0.0	0.0	0.0	0.0	0.0	0.0	145.86206896551727	0.0	0.013610805	-0.06274398	1.011410985	3.6624	0.35097999999999996	-1.63282	3174896.0	1776544739.440913	0.0	1.0	-1.0	-1.0	-1.0	-1.0	-1.0	-1.0	-1.0	-1.0	0.0	marker	opened-hand	Open	8	0418
-66171.42	-52443.045	-101685.19499999999	-17876.565	0.0	0.0	0.0	0.0	0.0	0.0	0.0	0.0	0.0	0.0	0.0	0.0	0.0	0.0	145.86206896551727	0.0	0.013610805	-0.06274398	1.011410985	3.6624	0.35097999999999996	-1.63282	3174897.0	1776544739.440932	0.0	1.0	-1.0	-1.0	-1.0	-1.0	-1.0	-1.0	-1.0	-1.0	0.0	marker	opened-hand	Open	8	0418
-66269.34	-52439.67	-101836.215	-17982.989999999998	0.0	0.0	0.0	0.0	0.0	0.0	0.0	0.0	0.0	0.0	0.0	0.0	0.0	0.0	145.86206896551727	0.0	0.013610805	-0.06274398	1.011410985	3.6624	0.35097999999999996	-1.63282	3174898.0	1776544739.444948	0.0	1.0	-1.0	-1.0	-1.0	-1.0	-1.0	-1.0	-1.0	-1.0	0.0	marker	opened-hand	Open	8	0418
-66229.065	-52428.825	-101827.75499999999	-17947.35	0.0	0.0	0.0	0.0	0.0	0.0	0.0	0.0	0.0	0.0	0.0	0.0	0.0	0.0	145.86206896551727	0.0	0.013610805	-0.06274398	1.011410985	3.6624	0.35097999999999996	-1.63282	3174899.0	1776544739.444973	0.0	1.0	-1.0	-1.0	-1.0	-1.0	-1.0	-1.0	-1.0	-1.0	0.0	marker	opened-hand	Open	8	0418
-66133.53	-52412.4	-101648.295	-17802.945	0.0	0.0	0.0	0.0	0.0	0.0	0.0	0.0	0.0	0.0	0.0	0.0	0.0	0.0	145.86206896551727	0.0	0.008483865	-0.0695799	1.01965071	5.0358	-0.16785999999999998	-1.89224	3174900.0	1776544739.448895	0.0	1.0	-1.0	-1.0	-1.0	-1.0	-1.0	-1.0	-1.0	-1.0	0.0	marker	opened-hand	Open	8	0418
-66105.94499999999	-52401.104999999996	-101541.105	-17755.065	0.0	0.0	0.0	0.0	0.0	0.0	0.0	0.0	0.0	0.0	0.0	0.0	0.0	0.0	145.86206896551727	0.0	0.008483865	-0.0695799	1.01965071	5.0358	-0.16785999999999998	-1.89224	3174901.0	1776544739.448912	0.0	1.0	-1.0	-1.0	-1.0	-1.0	-1.0	-1.0	-1.0	-1.0	0.0	marker	opened-hand	Open	8	0418
-66092.895	-52410.78	-101491.69499999999	-17713.62	0.0	0.0	0.0	0.0	0.0	0.0	0.0	0.0	0.0	0.0	0.0	0.0	0.0	0.0	145.86206896551727	0.0	0.008483865	-0.0695799	1.01965071	5.0358	-0.16785999999999998	-1.89224	3174902.0	1776544739.455527	0.0	1.0	-1.0	-1.0	-1.0	-1.0	-1.0	-1.0	-1.0	-1.0	0.0	marker	opened-hand	Open	8	0418
-65857.86	-52416.314999999995	-101334.465	-17482.005	0.0	0.0	0.0	0.0	0.0	0.0	0.0	0.0	0.0	0.0	0.0	0.0	0.0	0.0	145.86206896551727	0.0	0.008483865	-0.0695799	1.01965071	5.0358	-0.16785999999999998	-1.89224	3174903.0	1776544739.455545	0.0	1.0	-1.0	-1.0	-1.0	-1.0	-1.0	-1.0	-1.0	-1.0	0.0	marker	opened-hand	Open	8	0418
-65886.795	-52428.42	-101442.285	-17650.395	0.0	0.0	0.0	0.0	0.0	0.0	0.0	0.0	0.0	0.0	0.0	0.0	0.0	0.0	145.86206896551727	0.0	0.008483865	-0.0695799	1.01965071	5.0358	-0.16785999999999998	-1.89224	3174904.0	1776544739.458537	0.0	1.0	-1.0	-1.0	-1.0	-1.0	-1.0	-1.0	-1.0	-1.0	0.0	marker	opened-hand	Open	8	0418
-66471.84	-52457.534999999996	-101947.95	-18157.364999999998	0.0	0.0	0.0	0.0	0.0	0.0	0.0	0.0	0.0	0.0	0.0	0.0	0.0	0.0	145.86206896551727	0.0	0.008483865	-0.0695799	1.01965071	5.0358	-0.16785999999999998	-1.89224	3174905.0	1776544739.458554	0.0	1.0	-1.0	-1.0	-1.0	-1.0	-1.0	-1.0	-1.0	-1.0	0.0	marker	opened-hand	Open	8	0418
-66486.23999999999	-52449.84	-101957.04	-18161.73	0.0	0.0	0.0	0.0	0.0	0.0	0.0	0.0	0.0	0.0	0.0	0.0	0.0	0.0	145.86206896551727	0.0	0.008483865	-0.0695799	1.01965071	5.0358	-0.16785999999999998	-1.89224	3174906.0	1776544739.461868	0.0	1.0	-1.0	-1.0	-1.0	-1.0	-1.0	-1.0	-1.0	-1.0	0.0	marker	opened-hand	Open	8	0418
-66264.56999999999	-52427.295	-101688.61499999999	-17968.68	0.0	0.0	0.0	0.0	0.0	0.0	0.0	0.0	0.0	0.0	0.0	0.0	0.0	0.0	145.86206896551727	0.0	0.008483865	-0.0695799	1.01965071	5.0358	-0.16785999999999998	-1.89224	3174907.0	1776544739.461889	0.0	1.0	-1.0	-1.0	-1.0	-1.0	-1.0	-1.0	-1.0	-1.0	0.0	marker	opened-hand	Open	8	0418
-66107.25	-52408.575	-101524.86	-17752.364999999998	0.0	0.0	0.0	0.0	0.0	0.0	0.0	0.0	0.0	0.0	0.0	0.0	0.0	0.0	145.86206896551727	0.0	0.008483865	-0.0695799	1.01965071	5.0358	-0.16785999999999998	-1.89224	3174908.0	1776544739.465023	0.0	1.0	-1.0	-1.0	-1.0	-1.0	-1.0	-1.0	-1.0	-1.0	0.0	marker	opened-hand	Open	8	0418
-65959.83	-52401.465	-101580.795	-17711.73	0.0	0.0	0.0	0.0	0.0	0.0	0.0	0.0	0.0	0.0	0.0	0.0	0.0	0.0	145.86206896551727	0.0	0.008483865	-0.0695799	1.01965071	5.0358	-0.16785999999999998	-1.89224	3174909.0	1776544739.46504	0.0	1.0	-1.0	-1.0	-1.0	-1.0	-1.0	-1.0	-1.0	-1.0	0.0	marker	opened-hand	Open	8	0418
-66204.855	-52423.56	-101921.265	-18096.704999999998	0.0	0.0	0.0	0.0	0.0	0.0	0.0	0.0	0.0	0.0	0.0	0.0	0.0	0.0	145.86206896551727	0.0	0.00158691	-0.05432115	1.01769759	3.6013599999999997	0.33571999999999996	-0.07629999999999999	3174910.0	1776544739.469036	0.0	1.0	-1.0	-1.0	-1.0	-1.0	-1.0	-1.0	-1.0	-1.0	0.0	marker	opened-hand	Open	8	0418
-66258.22499999999	-52442.235	-101829.915	-18030.42	0.0	0.0	0.0	0.0	0.0	0.0	0.0	0.0	0.0	0.0	0.0	0.0	0.0	0.0	145.86206896551727	0.0	0.00158691	-0.05432115	1.01769759	3.6013599999999997	0.33571999999999996	-0.07629999999999999	3174911.0	1776544739.469054	0.0	1.0	-1.0	-1.0	-1.0	-1.0	-1.0	-1.0	-1.0	-1.0	0.0	marker	opened-hand	Open	8	0418
-66244.31999999999	-52463.43	-101674.89	-17861.219999999998	0.0	0.0	0.0	0.0	0.0	0.0	0.0	0.0	0.0	0.0	0.0	0.0	0.0	0.0	145.86206896551727	0.0	0.00158691	-0.05432115	1.01769759	3.6013599999999997	0.33571999999999996	-0.07629999999999999	3174912.0	1776544739.472996	0.0	1.0	-1.0	-1.0	-1.0	-1.0	-1.0	-1.0	-1.0	-1.0	0.0	marker	opened-hand	Open	8	0418
-66182.58	-52479.854999999996	-101679.03	-17881.02	0.0	0.0	0.0	0.0	0.0	0.0	0.0	0.0	0.0	0.0	0.0	0.0	0.0	0.0	145.86206896551727	0.0	0.00158691	-0.05432115	1.01769759	3.6013599999999997	0.33571999999999996	-0.07629999999999999	3174913.0	1776544739.473016	0.0	1.0	-1.0	-1.0	-1.0	-1.0	-1.0	-1.0	-1.0	-1.0	0.0	marker	opened-hand	Open	8	0418
-66201.39	-52496.055	-101721.375	-17925.48	0.0	0.0	0.0	0.0	0.0	0.0	0.0	0.0	0.0	0.0	0.0	0.0	0.0	0.0	145.86206896551727	0.0	0.00158691	-0.05432115	1.01769759	3.6013599999999997	0.33571999999999996	-0.07629999999999999	3174914.0	1776544739.478581	0.0	1.0	-1.0	-1.0	-1.0	-1.0	-1.0	-1.0	-1.0	-1.0	0.0	marker	opened-hand	Open	8	0418
-66250.215	-52486.74	-101758.815	-17942.625	0.0	0.0	0.0	0.0	0.0	0.0	0.0	0.0	0.0	0.0	0.0	0.0	0.0	0.0	145.86206896551727	0.0	0.00158691	-0.05432115	1.01769759	3.6013599999999997	0.33571999999999996	-0.07629999999999999	3174915.0	1776544739.478598	0.0	1.0	-1.0	-1.0	-1.0	-1.0	-1.0	-1.0	-1.0	-1.0	0.0	marker	opened-hand	Open	8	0418
-66306.19499999999	-52479.0	-101748.555	-17917.02	0.0	0.0	0.0	0.0	0.0	0.0	0.0	0.0	0.0	0.0	0.0	0.0	0.0	0.0	145.86206896551727	0.0	0.00158691	-0.05432115	1.01769759	3.6013599999999997	0.33571999999999996	-0.07629999999999999	3174916.0	1776544739.480991	0.0	1.0	-1.0	-1.0	-1.0	-1.0	-1.0	-1.0	-1.0	-1.0	0.0	marker	opened-hand	Open	8	0418
-66223.665	-52477.38	-101645.055	-17815.995	0.0	0.0	0.0	0.0	0.0	0.0	0.0	0.0	0.0	0.0	0.0	0.0	0.0	0.0	145.86206896551727	0.0	0.00158691	-0.05432115	1.01769759	3.6013599999999997	0.33571999999999996	-0.07629999999999999	3174917.0	1776544739.48101	0.0	1.0	-1.0	-1.0	-1.0	-1.0	-1.0	-1.0	-1.0	-1.0	0.0	marker	opened-hand	Open	8	0418
-66236.175	-52493.354999999996	-101725.83	-17910.045	0.0	0.0	0.0	0.0	0.0	0.0	0.0	0.0	0.0	0.0	0.0	0.0	0.0	0.0	145.86206896551727	0.0	0.00158691	-0.05432115	1.01769759	3.6013599999999997	0.33571999999999996	-0.07629999999999999	3174918.0	1776544739.484974	0.0	1.0	-1.0	-1.0	-1.0	-1.0	-1.0	-1.0	-1.0	-1.0	0.0	marker	opened-hand	Open	8	0418
-66121.155	-52489.305	-101648.11499999999	-17857.844999999998	0.0	0.0	0.0	0.0	0.0	0.0	0.0	0.0	0.0	0.0	0.0	0.0	0.0	0.0	145.86206896551727	0.0	0.00158691	-0.05432115	1.01769759	3.6013599999999997	0.33571999999999996	-0.07629999999999999	3174919.0	1776544739.484992	0.0	1.0	-1.0	-1.0	-1.0	-1.0	-1.0	-1.0	-1.0	-1.0	0.0	marker	opened-hand	Open	8	0418
-66107.385	-52492.77	-101610.45	-17847.765	0.0	0.0	0.0	0.0	0.0	0.0	0.0	0.0	0.0	0.0	0.0	0.0	0.0	0.0	145.86206896551727	0.0	0.014709435	-0.04748523	1.013730315	1.64808	0.35097999999999996	0.32045999999999997	3174920.0	1776544739.489073	0.0	1.0	-1.0	-1.0	-1.0	-1.0	-1.0	-1.0	-1.0	-1.0	0.0	marker	opened-hand	Open	8	0418
-66125.34	-52497.225	-101690.28	-17867.07	0.0	0.0	0.0	0.0	0.0	0.0	0.0	0.0	0.0	0.0	0.0	0.0	0.0	0.0	145.86206896551727	0.0	0.014709435	-0.04748523	1.013730315	1.64808	0.35097999999999996	0.32045999999999997	3174921.0	1776544739.489093	0.0	1.0	-1.0	-1.0	-1.0	-1.0	-1.0	-1.0	-1.0	-1.0	0.0	marker	opened-hand	Open	8	0418
-66103.155	-52495.515	-101685.105	-17863.11	0.0	0.0	0.0	0.0	0.0	0.0	0.0	0.0	0.0	0.0	0.0	0.0	0.0	0.0	145.86206896551727	0.0	0.014709435	-0.04748523	1.013730315	1.64808	0.35097999999999996	0.32045999999999997	3174922.0	1776544739.493027	0.0	1.0	-1.0	-1.0	-1.0	-1.0	-1.0	-1.0	-1.0	-1.0	0.0	marker	opened-hand	Open	8	0418
-66140.28	-52494.119999999995	-101701.62	-17871.075	0.0	0.0	0.0	0.0	0.0	0.0	0.0	0.0	0.0	0.0	0.0	0.0	0.0	0.0	145.86206896551727	0.0	0.014709435	-0.04748523	1.013730315	1.64808	0.35097999999999996	0.32045999999999997	3174923.0	1776544739.493045	0.0	1.0	-1.0	-1.0	-1.0	-1.0	-1.0	-1.0	-1.0	-1.0	0.0	marker	opened-hand	Open	8	0418
-66112.69499999999	-52490.115	-101588.805	-17760.645	0.0	0.0	0.0	0.0	0.0	0.0	0.0	0.0	0.0	0.0	0.0	0.0	0.0	0.0	145.86206896551727	0.0	0.014709435	-0.04748523	1.013730315	1.64808	0.35097999999999996	0.32045999999999997	3174924.0	1776544739.497007	0.0	1.0	-1.0	-1.0	-1.0	-1.0	-1.0	-1.0	-1.0	-1.0	0.0	marker	opened-hand	Open	8	0418
-66034.395	-52484.22	-101527.605	-17716.05	0.0	0.0	0.0	0.0	0.0	0.0	0.0	0.0	0.0	0.0	0.0	0.0	0.0	0.0	145.86206896551727	0.0	0.014709435	-0.04748523	1.013730315	1.64808	0.35097999999999996	0.32045999999999997	3174925.0	1776544739.497024	0.0	1.0	-1.0	-1.0	-1.0	-1.0	-1.0	-1.0	-1.0	-1.0	0.0	marker	opened-hand	Open	8	0418
-66136.77	-52502.715	-101683.62	-17878.995	0.0	0.0	0.0	0.0	0.0	0.0	0.0	0.0	0.0	0.0	0.0	0.0	0.0	0.0	145.86206896551727	0.0	0.014709435	-0.04748523	1.013730315	1.64808	0.35097999999999996	0.32045999999999997	3174926.0	1776544739.501012	0.0	1.0	-1.0	-1.0	-1.0	-1.0	-1.0	-1.0	-1.0	-1.0	0.0	marker	opened-hand	Open	8	0418
-66279.645	-52527.555	-101829.15	-18010.934999999998	0.0	0.0	0.0	0.0	0.0	0.0	0.0	0.0	0.0	0.0	0.0	0.0	0.0	0.0	145.86206896551727	0.0	0.014709435	-0.04748523	1.013730315	1.64808	0.35097999999999996	0.32045999999999997	3174927.0	1776544739.50103	0.0	1.0	-1.0	-1.0	-1.0	-1.0	-1.0	-1.0	-1.0	-1.0	0.0	marker	opened-hand	Open	8	0418
-66307.815	-52535.475	-101808.135	-17985.239999999998	0.0	0.0	0.0	0.0	0.0	0.0	0.0	0.0	0.0	0.0	0.0	0.0	0.0	0.0	145.86206896551727	0.0	0.014709435	-0.04748523	1.013730315	1.64808	0.35097999999999996	0.32045999999999997	3174928.0	1776544739.505081	0.0	1.0	-1.0	-1.0	-1.0	-1.0	-1.0	-1.0	-1.0	-1.0	0.0	marker	opened-hand	Open	8	0418
-66156.525	-52532.505	-101623.59	-17826.165	0.0	0.0	0.0	0.0	0.0	0.0	0.0	0.0	0.0	0.0	0.0	0.0	0.0	0.0	145.86206896551727	0.0	0.014709435	-0.04748523	1.013730315	1.64808	0.35097999999999996	0.32045999999999997	3174929.0	1776544739.505099	0.0	1.0	-1.0	-1.0	-1.0	-1.0	-1.0	-1.0	-1.0	-1.0	0.0	marker	opened-hand	Open	8	0418
-66176.81999999999	-52537.229999999996	-101611.305	-17840.745	0.0	0.0	0.0	0.0	0.0	0.0	0.0	0.0	0.0	0.0	0.0	0.0	0.0	0.0	145.86206896551727	0.0	0.01074216	-0.0500487	1.01598861	1.38866	0.6103999999999999	0.32045999999999997	3174930.0	1776544739.509046	0.0	1.0	-1.0	-1.0	-1.0	-1.0	-1.0	-1.0	-1.0	-1.0	0.0	marker	opened-hand	Open	8	0418
-66229.065	-52543.215	-101797.515	-18004.815	0.0	0.0	0.0	0.0	0.0	0.0	0.0	0.0	0.0	0.0	0.0	0.0	0.0	0.0	145.86206896551727	0.0	0.01074216	-0.0500487	1.01598861	1.38866	0.6103999999999999	0.32045999999999997	3174931.0	1776544739.509064	0.0	1.0	-1.0	-1.0	-1.0	-1.0	-1.0	-1.0	-1.0	-1.0	0.0	marker	opened-hand	Open	8	0418
-66160.395	-52539.255	-101696.715	-17879.895	0.0	0.0	0.0	0.0	0.0	0.0	0.0	0.0	0.0	0.0	0.0	0.0	0.0	0.0	145.86206896551727	0.0	0.01074216	-0.0500487	1.01598861	1.38866	0.6103999999999999	0.32045999999999997	3174932.0	1776544739.51377	0.0	1.0	-1.0	-1.0	-1.0	-1.0	-1.0	-1.0	-1.0	-1.0	0.0	marker	opened-hand	Open	8	0418
-66145.14	-52525.71	-101629.39499999999	-17819.505	0.0	0.0	0.0	0.0	0.0	0.0	0.0	0.0	0.0	0.0	0.0	0.0	0.0	0.0	145.86206896551727	0.0	0.01074216	-0.0500487	1.01598861	1.38866	0.6103999999999999	0.32045999999999997	3174933.0	1776544739.51379	0.0	1.0	-1.0	-1.0	-1.0	-1.0	-1.0	-1.0	-1.0	-1.0	0.0	marker	opened-hand	Open	8	0418
-66120.56999999999	-52515.27	-101634.03	-17809.515	0.0	0.0	0.0	0.0	0.0	0.0	0.0	0.0	0.0	0.0	0.0	0.0	0.0	0.0	145.86206896551727	0.0	0.01074216	-0.0500487	1.01598861	1.38866	0.6103999999999999	0.32045999999999997	3174934.0	1776544739.517054	0.0	1.0	-1.0	-1.0	-1.0	-1.0	-1.0	-1.0	-1.0	-1.0	0.0	marker	opened-hand	Open	8	0418
-66123.58499999999	-52525.079999999994	-101684.51999999999	-17839.17	0.0	0.0	0.0	0.0	0.0	0.0	0.0	0.0	0.0	0.0	0.0	0.0	0.0	0.0	145.86206896551727	0.0	0.01074216	-0.0500487	1.01598861	1.38866	0.6103999999999999	0.32045999999999997	3174935.0	1776544739.517073	0.0	1.0	-1.0	-1.0	-1.0	-1.0	-1.0	-1.0	-1.0	-1.0	0.0	marker	opened-hand	Open	8	0418
-66090.78	-52530.255	-101567.25	-17746.829999999998	0.0	0.0	0.0	0.0	0.0	0.0	0.0	0.0	0.0	0.0	0.0	0.0	0.0	0.0	145.86206896551727	0.0	0.01074216	-0.0500487	1.01598861	1.38866	0.6103999999999999	0.32045999999999997	3174936.0	1776544739.521098	0.0	1.0	-1.0	-1.0	-1.0	-1.0	-1.0	-1.0	-1.0	-1.0	0.0	marker	opened-hand	Open	8	0418
-66275.91	-52538.625	-101692.89	-17873.55	0.0	0.0	0.0	0.0	0.0	0.0	0.0	0.0	0.0	0.0	0.0	0.0	0.0	0.0	145.86206896551727	0.0	0.01074216	-0.0500487	1.01598861	1.38866	0.6103999999999999	0.32045999999999997	3174937.0	1776544739.521117	0.0	1.0	-1.0	-1.0	-1.0	-1.0	-1.0	-1.0	-1.0	-1.0	0.0	marker	opened-hand	Open	8	0418
-66344.265	-52533.854999999996	-101793.465	-17981.37	0.0	0.0	0.0	0.0	0.0	0.0	0.0	0.0	0.0	0.0	0.0	0.0	0.0	0.0	145.86206896551727	0.0	0.01074216	-0.0500487	1.01598861	1.38866	0.6103999999999999	0.32045999999999997	3174938.0	1776544739.52556	0.0	1.0	-1.0	-1.0	-1.0	-1.0	-1.0	-1.0	-1.0	-1.0	0.0	marker	opened-hand	Open	8	0418
-66059.955	-52519.814999999995	-101642.04	-17867.79	0.0	0.0	0.0	0.0	0.0	0.0	0.0	0.0	0.0	0.0	0.0	0.0	0.0	0.0	145.86206896551727	0.0	0.01074216	-0.0500487	1.01598861	1.38866	0.6103999999999999	0.32045999999999997	3174939.0	1776544739.525577	0.0	1.0	-1.0	-1.0	-1.0	-1.0	-1.0	-1.0	-1.0	-1.0	0.0	marker	opened-hand	Open	8	0418
-66027.555	-52509.869999999995	-101619.72	-17816.715	0.0	0.0	0.0	0.0	0.0	0.0	0.0	0.0	0.0	0.0	0.0	0.0	0.0	0.0	145.86206896551727	0.0	0.00952146	-0.05041491	1.014218595	1.526	0.62566	0.15259999999999999	3174940.0	1776544739.529126	0.0	1.0	-1.0	-1.0	-1.0	-1.0	-1.0	-1.0	-1.0	-1.0	0.0	marker	opened-hand	Open	8	0418
-66223.575	-52513.38	-101750.805	-17904.96	0.0	0.0	0.0	0.0	0.0	0.0	0.0	0.0	0.0	0.0	0.0	0.0	0.0	0.0	145.86206896551727	0.0	0.00952146	-0.05041491	1.014218595	1.526	0.62566	0.15259999999999999	3174941.0	1776544739.529145	0.0	1.0	-1.0	-1.0	-1.0	-1.0	-1.0	-1.0	-1.0	-1.0	0.0	marker	opened-hand	Open	8	0418
-66182.58	-52537.275	-101723.535	-17895.825	0.0	0.0	0.0	0.0	0.0	0.0	0.0	0.0	0.0	0.0	0.0	0.0	0.0	0.0	145.86206896551727	0.0	0.00952146	-0.05041491	1.014218595	1.526	0.62566	0.15259999999999999	3174942.0	1776544739.533189	0.0	1.0	-1.0	-1.0	-1.0	-1.0	-1.0	-1.0	-1.0	-1.0	0.0	marker	opened-hand	Open	8	0418
-66132.0	-52557.75	-101590.065	-17763.524999999998	0.0	0.0	0.0	0.0	0.0	0.0	0.0	0.0	0.0	0.0	0.0	0.0	0.0	0.0	145.86206896551727	0.0	0.00952146	-0.05041491	1.014218595	1.526	0.62566	0.15259999999999999	3174943.0	1776544739.533208	0.0	1.0	-1.0	-1.0	-1.0	-1.0	-1.0	-1.0	-1.0	-1.0	0.0	marker	opened-hand	Open	8	0418
-65978.37	-52570.17	-101437.47	-17615.97	0.0	0.0	0.0	0.0	0.0	0.0	0.0	0.0	0.0	0.0	0.0	0.0	0.0	0.0	145.86206896551727	0.0	0.00952146	-0.05041491	1.014218595	1.526	0.62566	0.15259999999999999	3174944.0	1776544739.538457	0.0	1.0	-1.0	-1.0	-1.0	-1.0	-1.0	-1.0	-1.0	-1.0	0.0	marker	opened-hand	Open	8	0418
-65701.44	-52588.845	-101389.905	-17625.239999999998	0.0	0.0	0.0	0.0	0.0	0.0	0.0	0.0	0.0	0.0	0.0	0.0	0.0	0.0	145.86206896551727	0.0	0.00952146	-0.05041491	1.014218595	1.526	0.62566	0.15259999999999999	3174945.0	1776544739.538477	0.0	1.0	-1.0	-1.0	-1.0	-1.0	-1.0	-1.0	-1.0	-1.0	0.0	marker	opened-hand	Open	8	0418
-66192.48	-52630.155	-101718.54	-17923.05	0.0	0.0	0.0	0.0	0.0	0.0	0.0	0.0	0.0	0.0	0.0	0.0	0.0	0.0	145.86206896551727	0.0	0.00952146	-0.05041491	1.014218595	1.526	0.62566	0.15259999999999999	3174946.0	1776544739.543495	0.0	1.0	-1.0	-1.0	-1.0	-1.0	-1.0	-1.0	-1.0	-1.0	0.0	marker	opened-hand	Open	8	0418
-66447.27	-52656.03	-101973.42	-18120.149999999998	0.0	0.0	0.0	0.0	0.0	0.0	0.0	0.0	0.0	0.0	0.0	0.0	0.0	0.0	145.86206896551727	0.0	0.00952146	-0.05041491	1.014218595	1.526	0.62566	0.15259999999999999	3174947.0	1776544739.543513	0.0	1.0	-1.0	-1.0	-1.0	-1.0	-1.0	-1.0	-1.0	-1.0	0.0	marker	opened-hand	Open	8	0418
-66401.955	-52655.85	-101990.25	-18151.11	0.0	0.0	0.0	0.0	0.0	0.0	0.0	0.0	0.0	0.0	0.0	0.0	0.0	0.0	145.86206896551727	0.0	0.00952146	-0.05041491	1.014218595	1.526	0.62566	0.15259999999999999	3174948.0	1776544739.545192	0.0	1.0	-1.0	-1.0	-1.0	-1.0	-1.0	-1.0	-1.0	-1.0	0.0	marker	opened-hand	Open	8	0418
-66362.22	-52645.59	-101879.09999999999	-18068.219999999998	0.0	0.0	0.0	0.0	0.0	0.0	0.0	0.0	0.0	0.0	0.0	0.0	0.0	0.0	145.86206896551727	0.0	0.00952146	-0.05041491	1.014218595	1.526	0.62566	0.15259999999999999	3174949.0	1776544739.54521	0.0	1.0	-1.0	-1.0	-1.0	-1.0	-1.0	-1.0	-1.0	-1.0	0.0	marker	opened-hand	Open	8	0418
-66242.83499999999	-52639.74	-101712.015	-17919.225	0.0	0.0	0.0	0.0	0.0	0.0	0.0	0.0	0.0	0.0	0.0	0.0	0.0	0.0	145.86206896551727	0.0	0.012878385000000001	-0.059570160000000004	1.01452377	2.07536	0.59514	-0.85456	3174950.0	1776544739.55022	0.0	1.0	-1.0	-1.0	-1.0	-1.0	-1.0	-1.0	-1.0	-1.0	0.0	marker	opened-hand	Open	8	0418
-66069.045	-52632.18	-101532.555	-17761.815	0.0	0.0	0.0	0.0	0.0	0.0	0.0	0.0	0.0	0.0	0.0	0.0	0.0	0.0	145.86206896551727	0.0	0.012878385000000001	-0.059570160000000004	1.01452377	2.07536	0.59514	-0.85456	3174951.0	1776544739.550238	0.0	1.0	-1.0	-1.0	-1.0	-1.0	-1.0	-1.0	-1.0	-1.0	0.0	marker	opened-hand	Open	8	0418
-66278.925	-52653.645	-101688.66	-17942.445	0.0	0.0	0.0	0.0	0.0	0.0	0.0	0.0	0.0	0.0	0.0	0.0	0.0	0.0	145.86206896551727	0.0	0.012878385000000001	-0.059570160000000004	1.01452377	2.07536	0.59514	-0.85456	3174952.0	1776544739.553295	0.0	1.0	-1.0	-1.0	-1.0	-1.0	-1.0	-1.0	-1.0	-1.0	0.0	marker	opened-hand	Open	8	0418
-66244.455	-52669.665	-101717.055	-17906.85	0.0	0.0	0.0	0.0	0.0	0.0	0.0	0.0	0.0	0.0	0.0	0.0	0.0	0.0	145.86206896551727	0.0	0.012878385000000001	-0.059570160000000004	1.01452377	2.07536	0.59514	-0.85456	3174953.0	1776544739.553314	0.0	1.0	-1.0	-1.0	-1.0	-1.0	-1.0	-1.0	-1.0	-1.0	0.0	marker	opened-hand	Open	8	0418
-66174.795	-52676.775	-101734.245	-17846.37	0.0	0.0	0.0	0.0	0.0	0.0	0.0	0.0	0.0	0.0	0.0	0.0	0.0	0.0	145.86206896551727	0.0	0.012878385000000001	-0.059570160000000004	1.01452377	2.07536	0.59514	-0.85456	3174954.0	1776544739.558117	0.0	1.0	-1.0	-1.0	-1.0	-1.0	-1.0	-1.0	-1.0	-1.0	0.0	marker	opened-hand	Open	8	0418
-66049.33499999999	-52667.954999999994	-101562.20999999999	-17710.605	0.0	0.0	0.0	0.0	0.0	0.0	0.0	0.0	0.0	0.0	0.0	0.0	0.0	0.0	145.86206896551727	0.0	0.012878385000000001	-0.059570160000000004	1.01452377	2.07536	0.59514	-0.85456	3174955.0	1776544739.558136	0.0	1.0	-1.0	-1.0	-1.0	-1.0	-1.0	-1.0	-1.0	-1.0	0.0	marker	opened-hand	Open	8	0418
-65936.11499999999	-52657.965	-101391.795	-17584.02	0.0	0.0	0.0	0.0	0.0	0.0	0.0	0.0	0.0	0.0	0.0	0.0	0.0	0.0	145.86206896551727	0.0	0.012878385000000001	-0.059570160000000004	1.01452377	2.07536	0.59514	-0.85456	3174956.0	1776544739.561239	0.0	1.0	-1.0	-1.0	-1.0	-1.0	-1.0	-1.0	-1.0	-1.0	0.0	marker	opened-hand	Open	8	0418
-66111.03	-52665.21	-101652.435	-17851.094999999998	0.0	0.0	0.0	0.0	0.0	0.0	0.0	0.0	0.0	0.0	0.0	0.0	0.0	0.0	145.86206896551727	0.0	0.012878385000000001	-0.059570160000000004	1.01452377	2.07536	0.59514	-0.85456	3174957.0	1776544739.561258	0.0	1.0	-1.0	-1.0	-1.0	-1.0	-1.0	-1.0	-1.0	-1.0	0.0	marker	opened-hand	Open	8	0418
-65967.525	-52652.475	-101586.59999999999	-17758.844999999998	0.0	0.0	0.0	0.0	0.0	0.0	0.0	0.0	0.0	0.0	0.0	0.0	0.0	0.0	145.86206896551727	0.0	0.012878385000000001	-0.059570160000000004	1.01452377	2.07536	0.59514	-0.85456	3174958.0	1776544739.567288	0.0	1.0	-1.0	-1.0	-1.0	-1.0	-1.0	-1.0	-1.0	-1.0	0.0	marker	opened-hand	Open	8	0418
-66172.005	-52662.329999999994	-101749.275	-17873.91	0.0	0.0	0.0	0.0	0.0	0.0	0.0	0.0	0.0	0.0	0.0	0.0	0.0	0.0	145.86206896551727	0.0	0.012878385000000001	-0.059570160000000004	1.01452377	2.07536	0.59514	-0.85456	3174959.0	1776544739.567305	0.0	1.0	-1.0	-1.0	-1.0	-1.0	-1.0	-1.0	-1.0	-1.0	0.0	marker	opened-hand	Open	8	0418
-66489.97499999999	-52679.655	-101972.385	-18149.265	0.0	0.0	0.0	0.0	0.0	0.0	0.0	0.0	0.0	0.0	0.0	0.0	0.0	0.0	145.86206896551727	0.0	0.002990715	-0.063903645	1.01867415	3.6624	0.33571999999999996	-0.73248	3174960.0	1776544739.570305	0.0	1.0	-1.0	-1.0	-1.0	-1.0	-1.0	-1.0	-1.0	-1.0	0.0	marker	opened-hand	Open	8	0418
-66334.455	-52671.06	-101844.22499999999	-18013.32	0.0	0.0	0.0	0.0	0.0	0.0	0.0	0.0	0.0	0.0	0.0	0.0	0.0	0.0	145.86206896551727	0.0	0.002990715	-0.063903645	1.01867415	3.6624	0.33571999999999996	-0.73248	3174961.0	1776544739.570323	0.0	1.0	-1.0	-1.0	-1.0	-1.0	-1.0	-1.0	-1.0	-1.0	0.0	marker	opened-hand	Open	8	0418
-66112.065	-52657.92	-101604.105	-17775.045	0.0	0.0	0.0	0.0	0.0	0.0	0.0	0.0	0.0	0.0	0.0	0.0	0.0	0.0	145.86206896551727	0.0	0.002990715	-0.063903645	1.01867415	3.6624	0.33571999999999996	-0.73248	3174962.0	1776544739.57333	0.0	1.0	-1.0	-1.0	-1.0	-1.0	-1.0	-1.0	-1.0	-1.0	0.0	marker	opened-hand	Open	8	0418
-66062.83499999999	-52645.409999999996	-101525.31	-17704.89	0.0	0.0	0.0	0.0	0.0	0.0	0.0	0.0	0.0	0.0	0.0	0.0	0.0	0.0	145.86206896551727	0.0	0.002990715	-0.063903645	1.01867415	3.6624	0.33571999999999996	-0.73248	3174963.0	1776544739.573348	0.0	1.0	-1.0	-1.0	-1.0	-1.0	-1.0	-1.0	-1.0	-1.0	0.0	marker	opened-hand	Open	8	0418
-65900.295	-52632.27	-101389.545	-17610.21	0.0	0.0	0.0	0.0	0.0	0.0	0.0	0.0	0.0	0.0	0.0	0.0	0.0	0.0	145.86206896551727	0.0	0.002990715	-0.063903645	1.01867415	3.6624	0.33571999999999996	-0.73248	3174964.0	1776544739.580477	0.0	1.0	-1.0	-1.0	-1.0	-1.0	-1.0	-1.0	-1.0	-1.0	0.0	marker	opened-hand	Open	8	0418
-66031.29	-52629.93	-101464.11	-17717.265	0.0	0.0	0.0	0.0	0.0	0.0	0.0	0.0	0.0	0.0	0.0	0.0	0.0	0.0	145.86206896551727	0.0	0.002990715	-0.063903645	1.01867415	3.6624	0.33571999999999996	-0.73248	3174965.0	1776544739.580494	0.0	1.0	-1.0	-1.0	-1.0	-1.0	-1.0	-1.0	-1.0	-1.0	0.0	marker	opened-hand	Open	8	0418
-66425.58	-52653.915	-101905.155	-18053.594999999998	0.0	0.0	0.0	0.0	0.0	0.0	0.0	0.0	0.0	0.0	0.0	0.0	0.0	0.0	145.86206896551727	0.0	0.002990715	-0.063903645	1.01867415	3.6624	0.33571999999999996	-0.73248	3174966.0	1776544739.581433	0.0	1.0	-1.0	-1.0	-1.0	-1.0	-1.0	-1.0	-1.0	-1.0	0.0	marker	opened-hand	Open	8	0418
-66305.565	-52644.06	-101902.815	-18066.87	0.0	0.0	0.0	0.0	0.0	0.0	0.0	0.0	0.0	0.0	0.0	0.0	0.0	0.0	145.86206896551727	0.0	0.002990715	-0.063903645	1.01867415	3.6624	0.33571999999999996	-0.73248	3174967.0	1776544739.581452	0.0	1.0	-1.0	-1.0	-1.0	-1.0	-1.0	-1.0	-1.0	-1.0	0.0	marker	opened-hand	Open	8	0418
-66142.395	-52634.97	-101785.95	-17942.535	0.0	0.0	0.0	0.0	0.0	0.0	0.0	0.0	0.0	0.0	0.0	0.0	0.0	0.0	145.86206896551727	0.0	0.002990715	-0.063903645	1.01867415	3.6624	0.33571999999999996	-0.73248	3174968.0	1776544739.585601	0.0	1.0	-1.0	-1.0	-1.0	-1.0	-1.0	-1.0	-1.0	-1.0	0.0	marker	opened-hand	Open	8	0418
-66114.09	-52630.335	-101727.765	-17893.485	0.0	0.0	0.0	0.0	0.0	0.0	0.0	0.0	0.0	0.0	0.0	0.0	0.0	0.0	145.86206896551727	0.0	0.002990715	-0.063903645	1.01867415	3.6624	0.33571999999999996	-0.73248	3174969.0	1776544739.58563	0.0	1.0	-1.0	-1.0	-1.0	-1.0	-1.0	-1.0	-1.0	-1.0	0.0	marker	opened-hand	Open	8	0418
-66138.84	-52619.625	-101626.245	-17781.93	0.0	0.0	0.0	0.0	0.0	0.0	0.0	0.0	0.0	0.0	0.0	0.0	0.0	0.0	145.86206896551727	0.0	-0.0012207	-0.055602885	1.01672103	1.32762	0.06104	-0.44254	3174970.0	1776544739.589424	0.0	1.0	-1.0	-1.0	-1.0	-1.0	-1.0	-1.0	-1.0	-1.0	0.0	marker	opened-hand	Open	8	0418
-66305.88	-52631.595	-101718.135	-17877.69	0.0	0.0	0.0	0.0	0.0	0.0	0.0	0.0	0.0	0.0	0.0	0.0	0.0	0.0	145.86206896551727	0.0	-0.0012207	-0.055602885	1.01672103	1.32762	0.06104	-0.44254	3174971.0	1776544739.589444	0.0	1.0	-1.0	-1.0	-1.0	-1.0	-1.0	-1.0	-1.0	-1.0	0.0	marker	opened-hand	Open	8	0418
-66320.685	-52641.18	-101763.26999999999	-17963.055	0.0	0.0	0.0	0.0	0.0	0.0	0.0	0.0	0.0	0.0	0.0	0.0	0.0	0.0	145.86206896551727	0.0	-0.0012207	-0.055602885	1.01672103	1.32762	0.06104	-0.44254	3174972.0	1776544739.593386	0.0	1.0	-1.0	-1.0	-1.0	-1.0	-1.0	-1.0	-1.0	-1.0	0.0	marker	opened-hand	Open	8	0418
-66252.23999999999	-52626.195	-101677.185	-17889.48	0.0	0.0	0.0	0.0	0.0	0.0	0.0	0.0	0.0	0.0	0.0	0.0	0.0	0.0	145.86206896551727	0.0	-0.0012207	-0.055602885	1.01672103	1.32762	0.06104	-0.44254	3174973.0	1776544739.593406	0.0	1.0	-1.0	-1.0	-1.0	-1.0	-1.0	-1.0	-1.0	-1.0	0.0	marker	opened-hand	Open	8	0418
-66126.645	-52600.229999999996	-101555.81999999999	-17795.34	0.0	0.0	0.0	0.0	0.0	0.0	0.0	0.0	0.0	0.0	0.0	0.0	0.0	0.0	145.86206896551727	0.0	-0.0012207	-0.055602885	1.01672103	1.32762	0.06104	-0.44254	3174974.0	1776544739.597382	0.0	1.0	-1.0	-1.0	-1.0	-1.0	-1.0	-1.0	-1.0	-1.0	0.0	marker	opened-hand	Open	8	0418
-66060.63	-52593.03	-101719.53	-17943.3	0.0	0.0	0.0	0.0	0.0	0.0	0.0	0.0	0.0	0.0	0.0	0.0	0.0	0.0	145.86206896551727	0.0	-0.0012207	-0.055602885	1.01672103	1.32762	0.06104	-0.44254	3174975.0	1776544739.5974	0.0	1.0	-1.0	-1.0	-1.0	-1.0	-1.0	-1.0	-1.0	-1.0	0.0	marker	opened-hand	Open	8	0418
-66223.845	-52608.645	-101870.28	-18012.015	0.0	0.0	0.0	0.0	0.0	0.0	0.0	0.0	0.0	0.0	0.0	0.0	0.0	0.0	145.86206896551727	0.0	-0.0012207	-0.055602885	1.01672103	1.32762	0.06104	-0.44254	3174976.0	1776544739.601374	0.0	1.0	-1.0	-1.0	-1.0	-1.0	-1.0	-1.0	-1.0	-1.0	0.0	marker	opened-hand	Open	8	0418
-66201.84	-52602.03	-101805.39	-17961.48	0.0	0.0	0.0	0.0	0.0	0.0	0.0	0.0	0.0	0.0	0.0	0.0	0.0	0.0	145.86206896551727	0.0	-0.0012207	-0.055602885	1.01672103	1.32762	0.06104	-0.44254	3174977.0	1776544739.601391	0.0	1.0	-1.0	-1.0	-1.0	-1.0	-1.0	-1.0	-1.0	-1.0	0.0	marker	opened-hand	Open	8	0418
-65996.19	-52588.125	-101575.575	-17767.844999999998	0.0	0.0	0.0	0.0	0.0	0.0	0.0	0.0	0.0	0.0	0.0	0.0	0.0	0.0	145.86206896551727	0.0	-0.0012207	-0.055602885	1.01672103	1.32762	0.06104	-0.44254	3174978.0	1776544739.610145	0.0	1.0	-1.0	-1.0	-1.0	-1.0	-1.0	-1.0	-1.0	-1.0	0.0	marker	opened-hand	Open	8	0418
-65845.62	-52579.89	-101359.08	-17560.079999999998	0.0	0.0	0.0	0.0	0.0	0.0	0.0	0.0	0.0	0.0	0.0	0.0	0.0	0.0	145.86206896551727	0.0	-0.0012207	-0.055602885	1.01672103	1.32762	0.06104	-0.44254	3174979.0	1776544739.610182	0.0	1.0	-1.0	-1.0	-1.0	-1.0	-1.0	-1.0	-1.0	-1.0	0.0	marker	opened-hand	Open	8	0418
-66157.83	-52595.865	-101636.28	-17798.355	0.0	0.0	0.0	0.0	0.0	0.0	0.0	0.0	0.0	0.0	0.0	0.0	0.0	0.0	145.86206896551727	0.0	0.012145965	-0.061462245	1.012387545	3.14356	1.32762	-1.05294	3174980.0	1776544739.610208	0.0	1.0	-1.0	-1.0	-1.0	-1.0	-1.0	-1.0	-1.0	-1.0	0.0	marker	opened-hand	Open	8	0418
-66492.27	-52625.88	-101973.87	-18127.844999999998	0.0	0.0	0.0	0.0	0.0	0.0	0.0	0.0	0.0	0.0	0.0	0.0	0.0	0.0	145.86206896551727	0.0	0.012145965	-0.061462245	1.012387545	3.14356	1.32762	-1.05294	3174981.0	1776544739.610226	0.0	1.0	-1.0	-1.0	-1.0	-1.0	-1.0	-1.0	-1.0	-1.0	0.0	marker	opened-hand	Open	8	0418
-66189.285	-52608.6	-101780.81999999999	-17971.605	0.0	0.0	0.0	0.0	0.0	0.0	0.0	0.0	0.0	0.0	0.0	0.0	0.0	0.0	145.86206896551727	0.0	0.012145965	-0.061462245	1.012387545	3.14356	1.32762	-1.05294	3174982.0	1776544739.614694	0.0	1.0	-1.0	-1.0	-1.0	-1.0	-1.0	-1.0	-1.0	-1.0	0.0	marker	opened-hand	Open	8	0418
-66029.22	-52591.185	-101633.44499999999	-17822.565	0.0	0.0	0.0	0.0	0.0	0.0	0.0	0.0	0.0	0.0	0.0	0.0	0.0	0.0	145.86206896551727	0.0	0.012145965	-0.061462245	1.012387545	3.14356	1.32762	-1.05294	3174983.0	1776544739.614712	0.0	1.0	-1.0	-1.0	-1.0	-1.0	-1.0	-1.0	-1.0	-1.0	0.0	marker	opened-hand	Open	8	0418
-66259.935	-52598.384999999995	-101810.205	-17988.57	0.0	0.0	0.0	0.0	0.0	0.0	0.0	0.0	0.0	0.0	0.0	0.0	0.0	0.0	145.86206896551727	0.0	0.012145965	-0.061462245	1.012387545	3.14356	1.32762	-1.05294	3174984.0	1776544739.617972	0.0	1.0	-1.0	-1.0	-1.0	-1.0	-1.0	-1.0	-1.0	-1.0	0.0	marker	opened-hand	Open	8	0418
-66314.79	-52612.515	-101860.73999999999	-18050.489999999998	0.0	0.0	0.0	0.0	0.0	0.0	0.0	0.0	0.0	0.0	0.0	0.0	0.0	0.0	145.86206896551727	0.0	0.012145965	-0.061462245	1.012387545	3.14356	1.32762	-1.05294	3174985.0	1776544739.617992	0.0	1.0	-1.0	-1.0	-1.0	-1.0	-1.0	-1.0	-1.0	-1.0	0.0	marker	opened-hand	Open	8	0418
-66214.305	-52612.829999999994	-101731.36499999999	-17912.655	0.0	0.0	0.0	0.0	0.0	0.0	0.0	0.0	0.0	0.0	0.0	0.0	0.0	0.0	145.86206896551727	0.0	0.012145965	-0.061462245	1.012387545	3.14356	1.32762	-1.05294	3174986.0	1776544739.621403	0.0	1.0	-1.0	-1.0	-1.0	-1.0	-1.0	-1.0	-1.0	-1.0	0.0	marker	opened-hand	Open	8	0418
-66108.015	-52612.695	-101548.845	-17732.16	0.0	0.0	0.0	0.0	0.0	0.0	0.0	0.0	0.0	0.0	0.0	0.0	0.0	0.0	145.86206896551727	0.0	0.012145965	-0.061462245	1.012387545	3.14356	1.32762	-1.05294	3174987.0	1776544739.621423	0.0	1.0	-1.0	-1.0	-1.0	-1.0	-1.0	-1.0	-1.0	-1.0	0.0	marker	opened-hand	Open	8	0418
-66099.23999999999	-52634.744999999995	-101486.87999999999	-17686.8	0.0	0.0	0.0	0.0	0.0	0.0	0.0	0.0	0.0	0.0	0.0	0.0	0.0	0.0	145.86206896551727	0.0	0.012145965	-0.061462245	1.012387545	3.14356	1.32762	-1.05294	3174988.0	1776544739.625443	0.0	1.0	-1.0	-1.0	-1.0	-1.0	-1.0	-1.0	-1.0	-1.0	0.0	marker	opened-hand	Open	8	0418
-66237.61499999999	-52683.884999999995	-101616.48	-17875.125	0.0	0.0	0.0	0.0	0.0	0.0	0.0	0.0	0.0	0.0	0.0	0.0	0.0	0.0	145.86206896551727	0.0	0.012145965	-0.061462245	1.012387545	3.14356	1.32762	-1.05294	3174989.0	1776544739.625461	0.0	1.0	-1.0	-1.0	-1.0	-1.0	-1.0	-1.0	-1.0	-1.0	0.0	marker	opened-hand	Open	8	0418
-66219.795	-52687.395	-101700.98999999999	-17978.04	0.0	0.0	0.0	0.0	0.0	0.0	0.0	0.0	0.0	0.0	0.0	0.0	0.0	0.0	145.86206896551727	0.0	0.01416012	-0.06811506	1.01464584	5.20366	0.9919	-1.9990599999999998	3174990.0	1776544739.629531	0.0	1.0	-1.0	-1.0	-1.0	-1.0	-1.0	-1.0	-1.0	-1.0	0.0	marker	opened-hand	Open	8	0418
-66094.69499999999	-52675.424999999996	-101693.97	-17865.989999999998	0.0	0.0	0.0	0.0	0.0	0.0	0.0	0.0	0.0	0.0	0.0	0.0	0.0	0.0	145.86206896551727	0.0	0.01416012	-0.06811506	1.01464584	5.20366	0.9919	-1.9990599999999998	3174991.0	1776544739.629551	0.0	1.0	-1.0	-1.0	-1.0	-1.0	-1.0	-1.0	-1.0	-1.0	0.0	marker	opened-hand	Open	8	0418
-65985.97499999999	-52670.564999999995	-101559.105	-17702.19	0.0	0.0	0.0	0.0	0.0	0.0	0.0	0.0	0.0	0.0	0.0	0.0	0.0	0.0	145.86206896551727	0.0	0.01416012	-0.06811506	1.01464584	5.20366	0.9919	-1.9990599999999998	3174992.0	1776544739.633517	0.0	1.0	-1.0	-1.0	-1.0	-1.0	-1.0	-1.0	-1.0	-1.0	0.0	marker	opened-hand	Open	8	0418
-65972.97	-52680.915	-101568.915	-17723.969999999998	0.0	0.0	0.0	0.0	0.0	0.0	0.0	0.0	0.0	0.0	0.0	0.0	0.0	0.0	145.86206896551727	0.0	0.01416012	-0.06811506	1.01464584	5.20366	0.9919	-1.9990599999999998	3174993.0	1776544739.633535	0.0	1.0	-1.0	-1.0	-1.0	-1.0	-1.0	-1.0	-1.0	-1.0	0.0	marker	opened-hand	Open	8	0418
-66371.44499999999	-52715.07	-101873.925	-17955.18	0.0	0.0	0.0	0.0	0.0	0.0	0.0	0.0	0.0	0.0	0.0	0.0	0.0	0.0	145.86206896551727	0.0	0.01416012	-0.06811506	1.01464584	5.20366	0.9919	-1.9990599999999998	3174994.0	1776544739.637583	0.0	1.0	-1.0	-1.0	-1.0	-1.0	-1.0	-1.0	-1.0	-1.0	0.0	marker	opened-hand	Open	8	0418
-66361.005	-52719.704999999994	-101833.875	-17975.655	0.0	0.0	0.0	0.0	0.0	0.0	0.0	0.0	0.0	0.0	0.0	0.0	0.0	0.0	145.86206896551727	0.0	0.01416012	-0.06811506	1.01464584	5.20366	0.9919	-1.9990599999999998	3174995.0	1776544739.6376	0.0	1.0	-1.0	-1.0	-1.0	-1.0	-1.0	-1.0	-1.0	-1.0	0.0	marker	opened-hand	Open	8	0418
-66023.685	-52692.704999999994	-101619.26999999999	-17821.125	0.0	0.0	0.0	0.0	0.0	0.0	0.0	0.0	0.0	0.0	0.0	0.0	0.0	0.0	145.86206896551727	0.0	0.01416012	-0.06811506	1.01464584	5.20366	0.9919	-1.9990599999999998	3174996.0	1776544739.641571	0.0	1.0	-1.0	-1.0	-1.0	-1.0	-1.0	-1.0	-1.0	-1.0	0.0	marker	opened-hand	Open	8	0418
-66105.09	-52680.24	-101747.11499999999	-17843.895	0.0	0.0	0.0	0.0	0.0	0.0	0.0	0.0	0.0	0.0	0.0	0.0	0.0	0.0	145.86206896551727	0.0	0.01416012	-0.06811506	1.01464584	5.20366	0.9919	-1.9990599999999998	3174997.0	1776544739.641589	0.0	1.0	-1.0	-1.0	-1.0	-1.0	-1.0	-1.0	-1.0	-1.0	0.0	marker	opened-hand	Open	8	0418
-66380.715	-52684.784999999996	-101924.64	-18044.82	0.0	0.0	0.0	0.0	0.0	0.0	0.0	0.0	0.0	0.0	0.0	0.0	0.0	0.0	145.86206896551727	0.0	0.01416012	-0.06811506	1.01464584	5.20366	0.9919	-1.9990599999999998	3174998.0	1776544739.645611	0.0	1.0	-1.0	-1.0	-1.0	-1.0	-1.0	-1.0	-1.0	-1.0	0.0	marker	opened-hand	Open	8	0418
-66412.935	-52672.409999999996	-101857.95	-18027.0	0.0	0.0	0.0	0.0	0.0	0.0	0.0	0.0	0.0	0.0	0.0	0.0	0.0	0.0	145.86206896551727	0.0	0.01416012	-0.06811506	1.01464584	5.20366	0.9919	-1.9990599999999998	3174999.0	1776544739.64563	0.0	1.0	-1.0	-1.0	-1.0	-1.0	-1.0	-1.0	-1.0	-1.0	0.0	marker	opened-hand	Open	8	0418
-66211.83	-52655.715	-101722.68	-17929.934999999998	0.0	0.0	0.0	0.0	0.0	0.0	0.0	0.0	0.0	0.0	0.0	0.0	0.0	0.0	145.86206896551727	0.0	0.00622557	-0.06005844	1.01769759	5.98192	0.88508	-0.30519999999999997	3175000.0	1776544739.650018	0.0	1.0	-1.0	-1.0	-1.0	-1.0	-1.0	-1.0	-1.0	-1.0	0.0	marker	opened-hand	Open	8	0418
-66057.525	-52650.63	-101593.125	-17812.125	0.0	0.0	0.0	0.0	0.0	0.0	0.0	0.0	0.0	0.0	0.0	0.0	0.0	0.0	145.86206896551727	0.0	0.00622557	-0.06005844	1.01769759	5.98192	0.88508	-0.30519999999999997	3175001.0	1776544739.650036	0.0	1.0	-1.0	-1.0	-1.0	-1.0	-1.0	-1.0	-1.0	-1.0	0.0	marker	opened-hand	Open	8	0418
-65978.505	-52653.735	-101473.965	-17682.39	0.0	0.0	0.0	0.0	0.0	0.0	0.0	0.0	0.0	0.0	0.0	0.0	0.0	0.0	145.86206896551727	0.0	0.00622557	-0.06005844	1.01769759	5.98192	0.88508	-0.30519999999999997	3175002.0	1776544739.653546	0.0	1.0	-1.0	-1.0	-1.0	-1.0	-1.0	-1.0	-1.0	-1.0	0.0	marker	opened-hand	Open	8	0418
-66000.645	-52662.689999999995	-101526.795	-17698.95	0.0	0.0	0.0	0.0	0.0	0.0	0.0	0.0	0.0	0.0	0.0	0.0	0.0	0.0	145.86206896551727	0.0	0.00622557	-0.06005844	1.01769759	5.98192	0.88508	-0.30519999999999997	3175003.0	1776544739.653565	0.0	1.0	-1.0	-1.0	-1.0	-1.0	-1.0	-1.0	-1.0	-1.0	0.0	marker	opened-hand	Open	8	0418
-66208.545	-52677.09	-101720.06999999999	-17865.315	0.0	0.0	0.0	0.0	0.0	0.0	0.0	0.0	0.0	0.0	0.0	0.0	0.0	0.0	145.86206896551727	0.0	0.00622557	-0.06005844	1.01769759	5.98192	0.88508	-0.30519999999999997	3175004.0	1776544739.657643	0.0	1.0	-1.0	-1.0	-1.0	-1.0	-1.0	-1.0	-1.0	-1.0	0.0	marker	opened-hand	Open	8	0418
-66242.06999999999	-52682.354999999996	-101655.58499999999	-17828.19	0.0	0.0	0.0	0.0	0.0	0.0	0.0	0.0	0.0	0.0	0.0	0.0	0.0	0.0	145.86206896551727	0.0	0.00622557	-0.06005844	1.01769759	5.98192	0.88508	-0.30519999999999997	3175005.0	1776544739.657662	0.0	1.0	-1.0	-1.0	-1.0	-1.0	-1.0	-1.0	-1.0	-1.0	0.0	marker	opened-hand	Open	8	0418
-66198.23999999999	-52685.055	-101674.845	-17697.96	0.0	0.0	0.0	0.0	0.0	0.0	0.0	0.0	0.0	0.0	0.0	0.0	0.0	0.0	145.86206896551727	0.0	0.00622557	-0.06005844	1.01769759	5.98192	0.88508	-0.30519999999999997	3175006.0	1776544739.666611	0.0	1.0	-1.0	-1.0	-1.0	-1.0	-1.0	-1.0	-1.0	-1.0	0.0	marker	opened-hand	Open	8	0418
-66121.245	-52702.38	-101620.845	-17736.614999999998	0.0	0.0	0.0	0.0	0.0	0.0	0.0	0.0	0.0	0.0	0.0	0.0	0.0	0.0	145.86206896551727	0.0	0.00622557	-0.06005844	1.01769759	5.98192	0.88508	-0.30519999999999997	3175007.0	1776544739.666628	0.0	1.0	-1.0	-1.0	-1.0	-1.0	-1.0	-1.0	-1.0	-1.0	0.0	marker	opened-hand	Open	8	0418
-66217.815	-52714.665	-101652.525	-17909.145	0.0	0.0	0.0	0.0	0.0	0.0	0.0	0.0	0.0	0.0	0.0	0.0	0.0	0.0	145.86206896551727	0.0	0.00622557	-0.06005844	1.01769759	5.98192	0.88508	-0.30519999999999997	3175008.0	1776544739.669408	0.0	1.0	-1.0	-1.0	-1.0	-1.0	-1.0	-1.0	-1.0	-1.0	0.0	marker	opened-hand	Open	8	0418
-66236.48999999999	-52715.924999999996	-101708.055	-17913.465	0.0	0.0	0.0	0.0	0.0	0.0	0.0	0.0	0.0	0.0	0.0	0.0	0.0	0.0	145.86206896551727	0.0	0.00622557	-0.06005844	1.01769759	5.98192	0.88508	-0.30519999999999997	3175009.0	1776544739.669421	0.0	1.0	-1.0	-1.0	-1.0	-1.0	-1.0	-1.0	-1.0	-1.0	0.0	marker	opened-hand	Open	8	0418
-66039.56999999999	-52714.395	-101716.37999999999	-17857.71	0.0	0.0	0.0	0.0	0.0	0.0	0.0	0.0	0.0	0.0	0.0	0.0	0.0	0.0	145.86206896551727	0.0	0.00280761	-0.056213235	1.020444165	5.06632	0.01526	0.47306	3175010.0	1776544739.669439	0.0	1.0	-1.0	-1.0	-1.0	-1.0	-1.0	-1.0	-1.0	-1.0	0.0	marker	opened-hand	Open	8	0418
-66255.56999999999	-52728.03	-101733.93	-17889.03	0.0	0.0	0.0	0.0	0.0	0.0	0.0	0.0	0.0	0.0	0.0	0.0	0.0	0.0	145.86206896551727	0.0	0.00280761	-0.056213235	1.020444165	5.06632	0.01526	0.47306	3175011.0	1776544739.669449	0.0	1.0	-1.0	-1.0	-1.0	-1.0	-1.0	-1.0	-1.0	-1.0	0.0	marker	opened-hand	Open	8	0418
-66217.72499999999	-52725.645	-101544.56999999999	-17932.454999999998	0.0	0.0	0.0	0.0	0.0	0.0	0.0	0.0	0.0	0.0	0.0	0.0	0.0	0.0	145.86206896551727	0.0	0.00280761	-0.056213235	1.020444165	5.06632	0.01526	0.47306	3175012.0	1776544739.673715	0.0	1.0	-1.0	-1.0	-1.0	-1.0	-1.0	-1.0	-1.0	-1.0	0.0	marker	opened-hand	Open	8	0418
-65965.59	-52705.395	-101223.765	-17706.195	0.0	0.0	0.0	0.0	0.0	0.0	0.0	0.0	0.0	0.0	0.0	0.0	0.0	0.0	145.86206896551727	0.0	0.00280761	-0.056213235	1.020444165	5.06632	0.01526	0.47306	3175013.0	1776544739.673725	0.0	1.0	-1.0	-1.0	-1.0	-1.0	-1.0	-1.0	-1.0	-1.0	0.0	marker	opened-hand	Open	8	0418
-65881.98	-52696.079999999994	-101368.575	-17517.915	0.0	0.0	0.0	0.0	0.0	0.0	0.0	0.0	0.0	0.0	0.0	0.0	0.0	0.0	145.86206896551727	0.0	0.00280761	-0.056213235	1.020444165	5.06632	0.01526	0.47306	3175014.0	1776544739.677765	0.0	1.0	-1.0	-1.0	-1.0	-1.0	-1.0	-1.0	-1.0	-1.0	0.0	marker	opened-hand	Open	8	0418
-66101.31	-52709.715	-101905.11	-17874.855	0.0	0.0	0.0	0.0	0.0	0.0	0.0	0.0	0.0	0.0	0.0	0.0	0.0	0.0	145.86206896551727	0.0	0.00280761	-0.056213235	1.020444165	5.06632	0.01526	0.47306	3175015.0	1776544739.677776	0.0	1.0	-1.0	-1.0	-1.0	-1.0	-1.0	-1.0	-1.0	-1.0	0.0	marker	opened-hand	Open	8	0418
-66249.315	-52715.07	-101899.75499999999	-18000.0	0.0	0.0	0.0	0.0	0.0	0.0	0.0	0.0	0.0	0.0	0.0	0.0	0.0	0.0	145.86206896551727	0.0	0.00280761	-0.056213235	1.020444165	5.06632	0.01526	0.47306	3175016.0	1776544739.681588	0.0	1.0	-1.0	-1.0	-1.0	-1.0	-1.0	-1.0	-1.0	-1.0	0.0	marker	opened-hand	Open	8	0418
-66112.245	-52692.84	-101690.055	-17805.78	0.0	0.0	0.0	0.0	0.0	0.0	0.0	0.0	0.0	0.0	0.0	0.0	0.0	0.0	145.86206896551727	0.0	0.00280761	-0.056213235	1.020444165	5.06632	0.01526	0.47306	3175017.0	1776544739.681597	0.0	1.0	-1.0	-1.0	-1.0	-1.0	-1.0	-1.0	-1.0	-1.0	0.0	marker	opened-hand	Open	8	0418
-66197.79	-52691.895	-101730.105	-17859.69	0.0	0.0	0.0	0.0	0.0	0.0	0.0	0.0	0.0	0.0	0.0	0.0	0.0	0.0	145.86206896551727	0.0	0.00280761	-0.056213235	1.020444165	5.06632	0.01526	0.47306	3175018.0	1776544739.685635	0.0	1.0	-1.0	-1.0	-1.0	-1.0	-1.0	-1.0	-1.0	-1.0	0.0	marker	opened-hand	Open	8	0418
-66207.915	-52704.585	-101763.765	-17936.73	0.0	0.0	0.0	0.0	0.0	0.0	0.0	0.0	0.0	0.0	0.0	0.0	0.0	0.0	145.86206896551727	0.0	0.00280761	-0.056213235	1.020444165	5.06632	0.01526	0.47306	3175019.0	1776544739.685648	0.0	1.0	-1.0	-1.0	-1.0	-1.0	-1.0	-1.0	-1.0	-1.0	0.0	marker	opened-hand	Open	8	0418
-66220.65	-52708.68	-101795.12999999999	-17959.545	0.0	0.0	0.0	0.0	0.0	0.0	0.0	0.0	0.0	0.0	0.0	0.0	0.0	0.0	145.86206896551727	0.0	0.00793455	-0.049743525000000004	1.0194065700000001	2.5636799999999997	0.6409199999999999	0.59514	3175020.0	1776544739.689763	0.0	1.0	-1.0	-1.0	-1.0	-1.0	-1.0	-1.0	-1.0	-1.0	0.0	marker	opened-hand	Open	8	0418
-66348.54	-52721.549999999996	-101927.025	-18063.54	0.0	0.0	0.0	0.0	0.0	0.0	0.0	0.0	0.0	0.0	0.0	0.0	0.0	0.0	145.86206896551727	0.0	0.00793455	-0.049743525000000004	1.0194065700000001	2.5636799999999997	0.6409199999999999	0.59514	3175021.0	1776544739.689779	0.0	1.0	-1.0	-1.0	-1.0	-1.0	-1.0	-1.0	-1.0	-1.0	0.0	marker	opened-hand	Open	8	0418
-66349.845	-52723.665	-101951.50499999999	-18118.305	0.0	0.0	0.0	0.0	0.0	0.0	0.0	0.0	0.0	0.0	0.0	0.0	0.0	0.0	145.86206896551727	0.0	0.00793455	-0.049743525000000004	1.0194065700000001	2.5636799999999997	0.6409199999999999	0.59514	3175022.0	1776544739.693819	0.0	1.0	-1.0	-1.0	-1.0	-1.0	-1.0	-1.0	-1.0	-1.0	0.0	marker	opened-hand	Open	8	0418
-66257.19	-52709.04	-101768.805	-17945.594999999998	0.0	0.0	0.0	0.0	0.0	0.0	0.0	0.0	0.0	0.0	0.0	0.0	0.0	0.0	145.86206896551727	0.0	0.00793455	-0.049743525000000004	1.0194065700000001	2.5636799999999997	0.6409199999999999	0.59514	3175023.0	1776544739.693829	0.0	1.0	-1.0	-1.0	-1.0	-1.0	-1.0	-1.0	-1.0	-1.0	0.0	marker	opened-hand	Open	8	0418
-66182.895	-52690.905	-101622.95999999999	-17793.989999999998	0.0	0.0	0.0	0.0	0.0	0.0	0.0	0.0	0.0	0.0	0.0	0.0	0.0	0.0	145.86206896551727	0.0	0.00793455	-0.049743525000000004	1.0194065700000001	2.5636799999999997	0.6409199999999999	0.59514	3175024.0	1776544739.697824	0.0	1.0	-1.0	-1.0	-1.0	-1.0	-1.0	-1.0	-1.0	-1.0	0.0	marker	opened-hand	Open	8	0418
-66076.965	-52681.905	-101621.51999999999	-17787.645	0.0	0.0	0.0	0.0	0.0	0.0	0.0	0.0	0.0	0.0	0.0	0.0	0.0	0.0	145.86206896551727	0.0	0.00793455	-0.049743525000000004	1.0194065700000001	2.5636799999999997	0.6409199999999999	0.59514	3175025.0	1776544739.697838	0.0	1.0	-1.0	-1.0	-1.0	-1.0	-1.0	-1.0	-1.0	-1.0	0.0	marker	opened-hand	Open	8	0418
-66095.28	-52679.744999999995	-101634.345	-17791.469999999998	0.0	0.0	0.0	0.0	0.0	0.0	0.0	0.0	0.0	0.0	0.0	0.0	0.0	0.0	145.86206896551727	0.0	0.00793455	-0.049743525000000004	1.0194065700000001	2.5636799999999997	0.6409199999999999	0.59514	3175026.0	1776544739.701621	0.0	1.0	-1.0	-1.0	-1.0	-1.0	-1.0	-1.0	-1.0	-1.0	0.0	marker	opened-hand	Open	8	0418
-66208.77	-52686.9	-101790.26999999999	-17965.844999999998	0.0	0.0	0.0	0.0	0.0	0.0	0.0	0.0	0.0	0.0	0.0	0.0	0.0	0.0	145.86206896551727	0.0	0.00793455	-0.049743525000000004	1.0194065700000001	2.5636799999999997	0.6409199999999999	0.59514	3175027.0	1776544739.701629	0.0	1.0	-1.0	-1.0	-1.0	-1.0	-1.0	-1.0	-1.0	-1.0	0.0	marker	opened-hand	Open	8	0418
-66243.375	-52682.445	-101681.64	-17832.375	0.0	0.0	0.0	0.0	0.0	0.0	0.0	0.0	0.0	0.0	0.0	0.0	0.0	0.0	145.86206896551727	0.0	0.00793455	-0.049743525000000004	1.0194065700000001	2.5636799999999997	0.6409199999999999	0.59514	3175028.0	1776544739.705773	0.0	1.0	-1.0	-1.0	-1.0	-1.0	-1.0	-1.0	-1.0	-1.0	0.0	marker	opened-hand	Open	8	0418
-66252.555	-52691.13	-101779.65	-17942.715	0.0	0.0	0.0	0.0	0.0	0.0	0.0	0.0	0.0	0.0	0.0	0.0	0.0	0.0	145.86206896551727	0.0	0.00793455	-0.049743525000000004	1.0194065700000001	2.5636799999999997	0.6409199999999999	0.59514	3175029.0	1776544739.705781	0.0	1.0	-1.0	-1.0	-1.0	-1.0	-1.0	-1.0	-1.0	-1.0	0.0	marker	opened-hand	Open	8	0418
-66145.995	-52682.895	-101757.64499999999	-17917.065	0.0	0.0	0.0	0.0	0.0	0.0	0.0	0.0	0.0	0.0	0.0	0.0	0.0	0.0	145.86206896551727	0.0	0.012145965	-0.05944809	1.01342514	3.6166199999999997	0.97664	-0.44254	3175030.0	1776544739.709773	0.0	1.0	-1.0	-1.0	-1.0	-1.0	-1.0	-1.0	-1.0	-1.0	0.0	marker	opened-hand	Open	8	0418
-66086.01	-52669.034999999996	-101700.405	-17861.715	0.0	0.0	0.0	0.0	0.0	0.0	0.0	0.0	0.0	0.0	0.0	0.0	0.0	0.0	145.86206896551727	0.0	0.012145965	-0.05944809	1.01342514	3.6166199999999997	0.97664	-0.44254	3175031.0	1776544739.709788	0.0	1.0	-1.0	-1.0	-1.0	-1.0	-1.0	-1.0	-1.0	-1.0	0.0	marker	opened-hand	Open	8	0418
-65876.48999999999	-52647.704999999994	-101475.45	-17676.27	0.0	0.0	0.0	0.0	0.0	0.0	0.0	0.0	0.0	0.0	0.0	0.0	0.0	0.0	145.86206896551727	0.0	0.012145965	-0.05944809	1.01342514	3.6166199999999997	0.97664	-0.44254	3175032.0	1776544739.713846	0.0	1.0	-1.0	-1.0	-1.0	-1.0	-1.0	-1.0	-1.0	-1.0	0.0	marker	opened-hand	Open	8	0418
-66048.795	-52655.715	-101517.03	-17719.38	0.0	0.0	0.0	0.0	0.0	0.0	0.0	0.0	0.0	0.0	0.0	0.0	0.0	0.0	145.86206896551727	0.0	0.012145965	-0.05944809	1.01342514	3.6166199999999997	0.97664	-0.44254	3175033.0	1776544739.713851	0.0	1.0	-1.0	-1.0	-1.0	-1.0	-1.0	-1.0	-1.0	-1.0	0.0	marker	opened-hand	Open	8	0418
-66461.44499999999	-52689.42	-101969.86499999999	-18116.864999999998	0.0	0.0	0.0	0.0	0.0	0.0	0.0	0.0	0.0	0.0	0.0	0.0	0.0	0.0	145.86206896551727	0.0	0.012145965	-0.05944809	1.01342514	3.6166199999999997	0.97664	-0.44254	3175034.0	1776544739.718352	0.0	1.0	-1.0	-1.0	-1.0	-1.0	-1.0	-1.0	-1.0	-1.0	0.0	marker	opened-hand	Open	8	0418
-66295.98	-52690.365	-101898.94499999999	-18039.239999999998	0.0	0.0	0.0	0.0	0.0	0.0	0.0	0.0	0.0	0.0	0.0	0.0	0.0	0.0	145.86206896551727	0.0	0.012145965	-0.05944809	1.01342514	3.6166199999999997	0.97664	-0.44254	3175035.0	1776544739.718359	0.0	1.0	-1.0	-1.0	-1.0	-1.0	-1.0	-1.0	-1.0	-1.0	0.0	marker	opened-hand	Open	8	0418
-65968.11	-52683.84	-101574.98999999999	-17702.64	0.0	0.0	0.0	0.0	0.0	0.0	0.0	0.0	0.0	0.0	0.0	0.0	0.0	0.0	145.86206896551727	0.0	0.012145965	-0.05944809	1.01342514	3.6166199999999997	0.97664	-0.44254	3175036.0	1776544739.721789	0.0	1.0	-1.0	-1.0	-1.0	-1.0	-1.0	-1.0	-1.0	-1.0	0.0	marker	opened-hand	Open	8	0418
-66041.595	-52697.115	-101630.205	-17791.065	0.0	0.0	0.0	0.0	0.0	0.0	0.0	0.0	0.0	0.0	0.0	0.0	0.0	0.0	145.86206896551727	0.0	0.012145965	-0.05944809	1.01342514	3.6166199999999997	0.97664	-0.44254	3175037.0	1776544739.721794	0.0	1.0	-1.0	-1.0	-1.0	-1.0	-1.0	-1.0	-1.0	-1.0	0.0	marker	opened-hand	Open	8	0418
-66361.86	-52723.215	-101845.035	-18034.02	0.0	0.0	0.0	0.0	0.0	0.0	0.0	0.0	0.0	0.0	0.0	0.0	0.0	0.0	145.86206896551727	0.0	0.012145965	-0.05944809	1.01342514	3.6166199999999997	0.97664	-0.44254	3175038.0	1776544739.725814	0.0	1.0	-1.0	-1.0	-1.0	-1.0	-1.0	-1.0	-1.0	-1.0	0.0	marker	opened-hand	Open	8	0418
-66324.285	-52714.619999999995	-101836.98	-18061.875	0.0	0.0	0.0	0.0	0.0	0.0	0.0	0.0	0.0	0.0	0.0	0.0	0.0	0.0	145.86206896551727	0.0	0.012145965	-0.05944809	1.01342514	3.6166199999999997	0.97664	-0.44254	3175039.0	1776544739.72582	0.0	1.0	-1.0	-1.0	-1.0	-1.0	-1.0	-1.0	-1.0	-1.0	0.0	marker	opened-hand	Open	8	0418
-66196.845	-52693.784999999996	-101767.36499999999	-17972.415	0.0	0.0	0.0	0.0	0.0	0.0	0.0	0.0	0.0	0.0	0.0	0.0	0.0	0.0	145.86206896551727	0.0	0.01379391	-0.060729825	1.01464584	3.7386999999999997	0.97664	-0.27468	3175040.0	1776544739.729786	0.0	1.0	-1.0	-1.0	-1.0	-1.0	-1.0	-1.0	-1.0	-1.0	0.0	marker	opened-hand	Open	8	0418
-66177.495	-52671.15	-101773.44	-17918.325	0.0	0.0	0.0	0.0	0.0	0.0	0.0	0.0	0.0	0.0	0.0	0.0	0.0	0.0	145.86206896551727	0.0	0.01379391	-0.060729825	1.01464584	3.7386999999999997	0.97664	-0.27468	3175041.0	1776544739.729791	0.0	1.0	-1.0	-1.0	-1.0	-1.0	-1.0	-1.0	-1.0	-1.0	0.0	marker	opened-hand	Open	8	0418
-66269.79	-52659.18	-101719.44	-17830.62	0.0	0.0	0.0	0.0	0.0	0.0	0.0	0.0	0.0	0.0	0.0	0.0	0.0	0.0	145.86206896551727	0.0	0.01379391	-0.060729825	1.01464584	3.7386999999999997	0.97664	-0.27468	3175042.0	1776544739.734649	0.0	1.0	-1.0	-1.0	-1.0	-1.0	-1.0	-1.0	-1.0	-1.0	0.0	marker	opened-hand	Open	8	0418
-66072.33	-52650.045	-101621.97	-17756.1	0.0	0.0	0.0	0.0	0.0	0.0	0.0	0.0	0.0	0.0	0.0	0.0	0.0	0.0	145.86206896551727	0.0	0.01379391	-0.060729825	1.01464584	3.7386999999999997	0.97664	-0.27468	3175043.0	1776544739.734655	0.0	1.0	-1.0	-1.0	-1.0	-1.0	-1.0	-1.0	-1.0	-1.0	0.0	marker	opened-hand	Open	8	0418
-65976.255	-52652.115	-101545.47	-17739.18	0.0	0.0	0.0	0.0	0.0	0.0	0.0	0.0	0.0	0.0	0.0	0.0	0.0	0.0	145.86206896551727	0.0	0.01379391	-0.060729825	1.01464584	3.7386999999999997	0.97664	-0.27468	3175044.0	1776544739.737874	0.0	1.0	-1.0	-1.0	-1.0	-1.0	-1.0	-1.0	-1.0	-1.0	0.0	marker	opened-hand	Open	8	0418
-66179.25	-52670.07	-101561.48999999999	-17803.079999999998	0.0	0.0	0.0	0.0	0.0	0.0	0.0	0.0	0.0	0.0	0.0	0.0	0.0	0.0	145.86206896551727	0.0	0.01379391	-0.060729825	1.01464584	3.7386999999999997	0.97664	-0.27468	3175045.0	1776544739.737878	0.0	1.0	-1.0	-1.0	-1.0	-1.0	-1.0	-1.0	-1.0	-1.0	0.0	marker	opened-hand	Open	8	0418
-66010.635	-52654.5	-101440.665	-17716.905	0.0	0.0	0.0	0.0	0.0	0.0	0.0	0.0	0.0	0.0	0.0	0.0	0.0	0.0	145.86206896551727	0.0	0.01379391	-0.060729825	1.01464584	3.7386999999999997	0.97664	-0.27468	3175046.0	1776544739.741808	0.0	1.0	-1.0	-1.0	-1.0	-1.0	-1.0	-1.0	-1.0	-1.0	0.0	marker	opened-hand	Open	8	0418
-66183.165	-52671.195	-101714.44499999999	-17834.489999999998	0.0	0.0	0.0	0.0	0.0	0.0	0.0	0.0	0.0	0.0	0.0	0.0	0.0	0.0	145.86206896551727	0.0	0.01379391	-0.060729825	1.01464584	3.7386999999999997	0.97664	-0.27468	3175047.0	1776544739.741813	0.0	1.0	-1.0	-1.0	-1.0	-1.0	-1.0	-1.0	-1.0	-1.0	0.0	marker	opened-hand	Open	8	0418
-66310.605	-52679.07	-101911.815	-17986.094999999998	0.0	0.0	0.0	0.0	0.0	0.0	0.0	0.0	0.0	0.0	0.0	0.0	0.0	0.0	145.86206896551727	0.0	0.01379391	-0.060729825	1.01464584	3.7386999999999997	0.97664	-0.27468	3175048.0	1776544739.745918	0.0	1.0	-1.0	-1.0	-1.0	-1.0	-1.0	-1.0	-1.0	-1.0	0.0	marker	opened-hand	Open	8	0418
-66254.48999999999	-52661.655	-101849.76	-17952.165	0.0	0.0	0.0	0.0	0.0	0.0	0.0	0.0	0.0	0.0	0.0	0.0	0.0	0.0	145.86206896551727	0.0	0.01379391	-0.060729825	1.01464584	3.7386999999999997	0.97664	-0.27468	3175049.0	1776544739.745923	0.0	1.0	-1.0	-1.0	-1.0	-1.0	-1.0	-1.0	-1.0	-1.0	0.0	marker	opened-hand	Open	8	0418
-66211.875	-52643.07	-101740.00499999999	-17860.68	0.0	0.0	0.0	0.0	0.0	0.0	0.0	0.0	0.0	0.0	0.0	0.0	0.0	0.0	145.86206896551727	0.0	0.00427245	-0.060973965	1.020932445	3.38772	0.3815	-0.8698199999999999	3175050.0	1776544739.749879	0.0	1.0	-1.0	-1.0	-1.0	-1.0	-1.0	-1.0	-1.0	-1.0	0.0	marker	opened-hand	Open	8	0418
-66122.055	-52629.435	-101670.03	-17850.96	0.0	0.0	0.0	0.0	0.0	0.0	0.0	0.0	0.0	0.0	0.0	0.0	0.0	0.0	145.86206896551727	0.0	0.00427245	-0.060973965	1.020932445	3.38772	0.3815	-0.8698199999999999	3175051.0	1776544739.749883	0.0	1.0	-1.0	-1.0	-1.0	-1.0	-1.0	-1.0	-1.0	-1.0	0.0	marker	opened-hand	Open	8	0418
-66240.495	-52630.155	-101742.48	-17907.434999999998	0.0	0.0	0.0	0.0	0.0	0.0	0.0	0.0	0.0	0.0	0.0	0.0	0.0	0.0	145.86206896551727	0.0	0.00427245	-0.060973965	1.020932445	3.38772	0.3815	-0.8698199999999999	3175052.0	1776544739.75396	0.0	1.0	-1.0	-1.0	-1.0	-1.0	-1.0	-1.0	-1.0	-1.0	0.0	marker	opened-hand	Open	8	0418
-66196.125	-52629.704999999994	-101696.985	-17893.53	0.0	0.0	0.0	0.0	0.0	0.0	0.0	0.0	0.0	0.0	0.0	0.0	0.0	0.0	145.86206896551727	0.0	0.00427245	-0.060973965	1.020932445	3.38772	0.3815	-0.8698199999999999	3175053.0	1776544739.753964	0.0	1.0	-1.0	-1.0	-1.0	-1.0	-1.0	-1.0	-1.0	-1.0	0.0	marker	opened-hand	Open	8	0418
-66079.17	-52631.954999999994	-101623.185	-17797.68	0.0	0.0	0.0	0.0	0.0	0.0	0.0	0.0	0.0	0.0	0.0	0.0	0.0	0.0	145.86206896551727	0.0	0.00427245	-0.060973965	1.020932445	3.38772	0.3815	-0.8698199999999999	3175054.0	1776544739.757976	0.0	1.0	-1.0	-1.0	-1.0	-1.0	-1.0	-1.0	-1.0	-1.0	0.0	marker	opened-hand	Open	8	0418
-66183.705	-52642.125	-101737.665	-17864.594999999998	0.0	0.0	0.0	0.0	0.0	0.0	0.0	0.0	0.0	0.0	0.0	0.0	0.0	0.0	145.86206896551727	0.0	0.00427245	-0.060973965	1.020932445	3.38772	0.3815	-0.8698199999999999	3175055.0	1776544739.75798	0.0	1.0	-1.0	-1.0	-1.0	-1.0	-1.0	-1.0	-1.0	-1.0	0.0	marker	opened-hand	Open	8	0418
-66273.255	-52645.005	-101841.75	-18001.89	0.0	0.0	0.0	0.0	0.0	0.0	0.0	0.0	0.0	0.0	0.0	0.0	0.0	0.0	145.86206896551727	0.0	0.00427245	-0.060973965	1.020932445	3.38772	0.3815	-0.8698199999999999	3175056.0	1776544739.762944	0.0	1.0	-1.0	-1.0	-1.0	-1.0	-1.0	-1.0	-1.0	-1.0	0.0	marker	opened-hand	Open	8	0418
-66173.715	-52633.619999999995	-101748.42	-17918.82	0.0	0.0	0.0	0.0	0.0	0.0	0.0	0.0	0.0	0.0	0.0	0.0	0.0	0.0	145.86206896551727	0.0	0.00427245	-0.060973965	1.020932445	3.38772	0.3815	-0.8698199999999999	3175057.0	1776544739.762948	0.0	1.0	-1.0	-1.0	-1.0	-1.0	-1.0	-1.0	-1.0	-1.0	0.0	marker	opened-hand	Open	8	0418
-66113.415	-52625.79	-101573.64	-17777.295	0.0	0.0	0.0	0.0	0.0	0.0	0.0	0.0	0.0	0.0	0.0	0.0	0.0	0.0	145.86206896551727	0.0	0.00427245	-0.060973965	1.020932445	3.38772	0.3815	-0.8698199999999999	3175058.0	1776544739.765912	0.0	1.0	-1.0	-1.0	-1.0	-1.0	-1.0	-1.0	-1.0	-1.0	0.0	marker	opened-hand	Open	8	0418
-65995.92	-52621.11	-101405.79	-17549.774999999998	0.0	0.0	0.0	0.0	0.0	0.0	0.0	0.0	0.0	0.0	0.0	0.0	0.0	0.0	145.86206896551727	0.0	0.00427245	-0.060973965	1.020932445	3.38772	0.3815	-0.8698199999999999	3175059.0	1776544739.765916	0.0	1.0	-1.0	-1.0	-1.0	-1.0	-1.0	-1.0	-1.0	-1.0	0.0	marker	opened-hand	Open	8	0418
-66104.685	-52638.704999999994	-101724.61499999999	-17829.135	0.0	0.0	0.0	0.0	0.0	0.0	0.0	0.0	0.0	0.0	0.0	0.0	0.0	0.0	145.86206896551727	0.0	-0.002868645	-0.05139147	1.021786935	1.96854	-0.06104	-0.2289	3175060.0	1776544739.770059	0.0	1.0	-1.0	-1.0	-1.0	-1.0	-1.0	-1.0	-1.0	-1.0	0.0	marker	opened-hand	Open	8	0418
-66049.69499999999	-52641.54	-101685.51	-17828.235	0.0	0.0	0.0	0.0	0.0	0.0	0.0	0.0	0.0	0.0	0.0	0.0	0.0	0.0	145.86206896551727	0.0	-0.002868645	-0.05139147	1.021786935	1.96854	-0.06104	-0.2289	3175061.0	1776544739.770074	0.0	1.0	-1.0	-1.0	-1.0	-1.0	-1.0	-1.0	-1.0	-1.0	0.0	marker	opened-hand	Open	8	0418
-66202.875	-52648.29	-101738.06999999999	-17920.125	0.0	0.0	0.0	0.0	0.0	0.0	0.0	0.0	0.0	0.0	0.0	0.0	0.0	0.0	145.86206896551727	0.0	-0.002868645	-0.05139147	1.021786935	1.96854	-0.06104	-0.2289	3175062.0	1776544739.774973	0.0	1.0	-1.0	-1.0	-1.0	-1.0	-1.0	-1.0	-1.0	-1.0	0.0	marker	opened-hand	Open	8	0418
-66293.45999999999	-52662.104999999996	-101815.875	-18016.92	0.0	0.0	0.0	0.0	0.0	0.0	0.0	0.0	0.0	0.0	0.0	0.0	0.0	0.0	145.86206896551727	0.0	-0.002868645	-0.05139147	1.021786935	1.96854	-0.06104	-0.2289	3175063.0	1776544739.774988	0.0	1.0	-1.0	-1.0	-1.0	-1.0	-1.0	-1.0	-1.0	-1.0	0.0	marker	opened-hand	Open	8	0418
-66243.33	-52653.015	-101781.18	-17949.195	0.0	0.0	0.0	0.0	0.0	0.0	0.0	0.0	0.0	0.0	0.0	0.0	0.0	0.0	145.86206896551727	0.0	-0.002868645	-0.05139147	1.021786935	1.96854	-0.06104	-0.2289	3175064.0	1776544739.777985	0.0	1.0	-1.0	-1.0	-1.0	-1.0	-1.0	-1.0	-1.0	-1.0	0.0	marker	opened-hand	Open	8	0418
-66237.255	-52637.49	-101776.95	-17930.25	0.0	0.0	0.0	0.0	0.0	0.0	0.0	0.0	0.0	0.0	0.0	0.0	0.0	0.0	145.86206896551727	0.0	-0.002868645	-0.05139147	1.021786935	1.96854	-0.06104	-0.2289	3175065.0	1776544739.777989	0.0	1.0	-1.0	-1.0	-1.0	-1.0	-1.0	-1.0	-1.0	-1.0	0.0	marker	opened-hand	Open	8	0418
-66179.745	-52613.325	-101780.64	-17915.67	0.0	0.0	0.0	0.0	0.0	0.0	0.0	0.0	0.0	0.0	0.0	0.0	0.0	0.0	145.86206896551727	0.0	-0.002868645	-0.05139147	1.021786935	1.96854	-0.06104	-0.2289	3175066.0	1776544739.783915	0.0	1.0	-1.0	-1.0	-1.0	-1.0	-1.0	-1.0	-1.0	-1.0	0.0	marker	opened-hand	Open	8	0418
-66149.415	-52600.545	-101721.015	-17888.715	0.0	0.0	0.0	0.0	0.0	0.0	0.0	0.0	0.0	0.0	0.0	0.0	0.0	0.0	145.86206896551727	0.0	-0.002868645	-0.05139147	1.021786935	1.96854	-0.06104	-0.2289	3175067.0	1776544739.783919	0.0	1.0	-1.0	-1.0	-1.0	-1.0	-1.0	-1.0	-1.0	-1.0	0.0	marker	opened-hand	Open	8	0418
-66190.59	-52604.235	-101700.18	-17878.41	0.0	0.0	0.0	0.0	0.0	0.0	0.0	0.0	0.0	0.0	0.0	0.0	0.0	0.0	145.86206896551727	0.0	-0.002868645	-0.05139147	1.021786935	1.96854	-0.06104	-0.2289	3175068.0	1776544739.785979	0.0	1.0	-1.0	-1.0	-1.0	-1.0	-1.0	-1.0	-1.0	-1.0	0.0	marker	opened-hand	Open	8	0418
-66217.23	-52614.314999999995	-101682.315	-17842.545	0.0	0.0	0.0	0.0	0.0	0.0	0.0	0.0	0.0	0.0	0.0	0.0	0.0	0.0	145.86206896551727	0.0	-0.002868645	-0.05139147	1.021786935	1.96854	-0.06104	-0.2289	3175069.0	1776544739.785982	0.0	1.0	-1.0	-1.0	-1.0	-1.0	-1.0	-1.0	-1.0	-1.0	0.0	marker	opened-hand	Open	8	0418
-66071.11499999999	-52615.439999999995	-101535.56999999999	-17720.505	0.0	0.0	0.0	0.0	0.0	0.0	0.0	0.0	0.0	0.0	0.0	0.0	0.0	0.0	145.86206896551727	0.0	0.00769041	-0.049743525000000004	1.014340665	1.15976	0.06104	-0.21364	3175070.0	1776544739.789935	0.0	1.0	-1.0	-1.0	-1.0	-1.0	-1.0	-1.0	-1.0	-1.0	0.0	marker	opened-hand	Open	8	0418
-65953.08	-52614.854999999996	-101488.31999999999	-17702.864999999998	0.0	0.0	0.0	0.0	0.0	0.0	0.0	0.0	0.0	0.0	0.0	0.0	0.0	0.0	145.86206896551727	0.0	0.00769041	-0.049743525000000004	1.014340665	1.15976	0.06104	-0.21364	3175071.0	1776544739.789939	0.0	1.0	-1.0	-1.0	-1.0	-1.0	-1.0	-1.0	-1.0	-1.0	0.0	marker	opened-hand	Open	8	0418
-66168.765	-52632.45	-101698.875	-17937.315	0.0	0.0	0.0	0.0	0.0	0.0	0.0	0.0	0.0	0.0	0.0	0.0	0.0	0.0	145.86206896551727	0.0	0.00769041	-0.049743525000000004	1.014340665	1.15976	0.06104	-0.21364	3175072.0	1776544739.794067	0.0	1.0	-1.0	-1.0	-1.0	-1.0	-1.0	-1.0	-1.0	-1.0	0.0	marker	opened-hand	Open	8	0418
-66147.56999999999	-52629.704999999994	-101683.98	-17915.219999999998	0.0	0.0	0.0	0.0	0.0	0.0	0.0	0.0	0.0	0.0	0.0	0.0	0.0	0.0	145.86206896551727	0.0	0.00769041	-0.049743525000000004	1.014340665	1.15976	0.06104	-0.21364	3175073.0	1776544739.794083	0.0	1.0	-1.0	-1.0	-1.0	-1.0	-1.0	-1.0	-1.0	-1.0	0.0	marker	opened-hand	Open	8	0418
-66367.98	-52637.715	-101942.28	-18018.09	0.0	0.0	0.0	0.0	0.0	0.0	0.0	0.0	0.0	0.0	0.0	0.0	0.0	0.0	145.86206896551727	0.0	0.00769041	-0.049743525000000004	1.014340665	1.15976	0.06104	-0.21364	3175074.0	1776544739.798459	0.0	1.0	-1.0	-1.0	-1.0	-1.0	-1.0	-1.0	-1.0	-1.0	0.0	marker	opened-hand	Open	8	0418
-66257.09999999999	-52626.78	-101947.72499999999	-18044.954999999998	0.0	0.0	0.0	0.0	0.0	0.0	0.0	0.0	0.0	0.0	0.0	0.0	0.0	0.0	145.86206896551727	0.0	0.00769041	-0.049743525000000004	1.014340665	1.15976	0.06104	-0.21364	3175075.0	1776544739.798463	0.0	1.0	-1.0	-1.0	-1.0	-1.0	-1.0	-1.0	-1.0	-1.0	0.0	marker	opened-hand	Open	8	0418
-66063.015	-52605.63	-101653.83	-17759.43	0.0	0.0	0.0	0.0	0.0	0.0	0.0	0.0	0.0	0.0	0.0	0.0	0.0	0.0	145.86206896551727	0.0	0.00769041	-0.049743525000000004	1.014340665	1.15976	0.06104	-0.21364	3175076.0	1776544739.80208	0.0	1.0	-1.0	-1.0	-1.0	-1.0	-1.0	-1.0	-1.0	-1.0	0.0	marker	opened-hand	Open	8	0418
-65967.66	-52609.005	-101471.805	-17643.69	0.0	0.0	0.0	0.0	0.0	0.0	0.0	0.0	0.0	0.0	0.0	0.0	0.0	0.0	145.86206896551727	0.0	0.00769041	-0.049743525000000004	1.014340665	1.15976	0.06104	-0.21364	3175077.0	1776544739.802084	0.0	1.0	-1.0	-1.0	-1.0	-1.0	-1.0	-1.0	-1.0	-1.0	0.0	marker	opened-hand	Open	8	0418
-66092.58	-52621.064999999995	-101569.275	-17790.344999999998	0.0	0.0	0.0	0.0	0.0	0.0	0.0	0.0	0.0	0.0	0.0	0.0	0.0	0.0	145.86206896551727	0.0	0.00769041	-0.049743525000000004	1.014340665	1.15976	0.06104	-0.21364	3175078.0	1776544739.806122	0.0	1.0	-1.0	-1.0	-1.0	-1.0	-1.0	-1.0	-1.0	-1.0	0.0	marker	opened-hand	Open	8	0418
-66181.095	-52634.43	-101679.97499999999	-17814.6	0.0	0.0	0.0	0.0	0.0	0.0	0.0	0.0	0.0	0.0	0.0	0.0	0.0	0.0	145.86206896551727	0.0	0.00769041	-0.049743525000000004	1.014340665	1.15976	0.06104	-0.21364	3175079.0	1776544739.806126	0.0	1.0	-1.0	-1.0	-1.0	-1.0	-1.0	-1.0	-1.0	-1.0	0.0	marker	opened-hand	Open	8	0418
-66262.59	-52653.915	-101879.64	-18000.36	0.0	0.0	0.0	0.0	0.0	0.0	0.0	0.0	0.0	0.0	0.0	0.0	0.0	0.0	145.86206896551727	0.0	0.01330563	-0.062255700000000004	1.015317225	3.26564	0.54936	-0.65618	3175080.0	1776544739.810129	0.0	1.0	-1.0	-1.0	-1.0	-1.0	-1.0	-1.0	-1.0	-1.0	0.0	marker	opened-hand	Open	8	0418
-66176.37	-52658.729999999996	-101837.61	-17975.52	0.0	0.0	0.0	0.0	0.0	0.0	0.0	0.0	0.0	0.0	0.0	0.0	0.0	0.0	145.86206896551727	0.0	0.01330563	-0.062255700000000004	1.015317225	3.26564	0.54936	-0.65618	3175081.0	1776544739.810143	0.0	1.0	-1.0	-1.0	-1.0	-1.0	-1.0	-1.0	-1.0	-1.0	0.0	marker	opened-hand	Open	8	0418
-66077.505	-52649.415	-101624.12999999999	-17814.375	0.0	0.0	0.0	0.0	0.0	0.0	0.0	0.0	0.0	0.0	0.0	0.0	0.0	0.0	145.86206896551727	0.0	0.01330563	-0.062255700000000004	1.015317225	3.26564	0.54936	-0.65618	3175082.0	1776544739.814074	0.0	1.0	-1.0	-1.0	-1.0	-1.0	-1.0	-1.0	-1.0	-1.0	0.0	marker	opened-hand	Open	8	0418
-66228.56999999999	-52652.924999999996	-101751.93	-17951.445	0.0	0.0	0.0	0.0	0.0	0.0	0.0	0.0	0.0	0.0	0.0	0.0	0.0	0.0	145.86206896551727	0.0	0.01330563	-0.062255700000000004	1.015317225	3.26564	0.54936	-0.65618	3175083.0	1776544739.814079	0.0	1.0	-1.0	-1.0	-1.0	-1.0	-1.0	-1.0	-1.0	-1.0	0.0	marker	opened-hand	Open	8	0418
-66240.22499999999	-52643.88	-101765.565	-17872.515	0.0	0.0	0.0	0.0	0.0	0.0	0.0	0.0	0.0	0.0	0.0	0.0	0.0	0.0	145.86206896551727	0.0	0.01330563	-0.062255700000000004	1.015317225	3.26564	0.54936	-0.65618	3175084.0	1776544739.818079	0.0	1.0	-1.0	-1.0	-1.0	-1.0	-1.0	-1.0	-1.0	-1.0	0.0	marker	opened-hand	Open	8	0418
-66164.31	-52648.47	-101574.18	-17704.395	0.0	0.0	0.0	0.0	0.0	0.0	0.0	0.0	0.0	0.0	0.0	0.0	0.0	0.0	146.0	0.0	0.01330563	-0.062255700000000004	1.015317225	3.26564	0.54936	-0.65618	3175085.0	1776544739.818083	0.0	1.0	-1.0	-1.0	-1.0	-1.0	-1.0	-1.0	-1.0	-1.0	0.0	marker	opened-hand	Open	8	0418
-66222.27	-52658.145	-101620.215	-17783.19	0.0	0.0	0.0	0.0	0.0	0.0	0.0	0.0	0.0	0.0	0.0	0.0	0.0	0.0	146.0	0.0	0.01330563	-0.062255700000000004	1.015317225	3.26564	0.54936	-0.65618	3175086.0	1776544739.822256	0.0	1.0	-1.0	-1.0	-1.0	-1.0	-1.0	-1.0	-1.0	-1.0	0.0	marker	opened-hand	Open	8	0418
-66168.27	-52666.02	-101777.67	-17938.079999999998	0.0	0.0	0.0	0.0	0.0	0.0	0.0	0.0	0.0	0.0	0.0	0.0	0.0	0.0	146.0	0.0	0.01330563	-0.062255700000000004	1.015317225	3.26564	0.54936	-0.65618	3175087.0	1776544739.822271	0.0	1.0	-1.0	-1.0	-1.0	-1.0	-1.0	-1.0	-1.0	-1.0	0.0	marker	opened-hand	Open	8	0418
-66097.34999999999	-52672.994999999995	-101706.03	-17882.954999999998	0.0	0.0	0.0	0.0	0.0	0.0	0.0	0.0	0.0	0.0	0.0	0.0	0.0	0.0	146.0	0.0	0.01330563	-0.062255700000000004	1.015317225	3.26564	0.54936	-0.65618	3175088.0	1776544739.826205	0.0	1.0	-1.0	-1.0	-1.0	-1.0	-1.0	-1.0	-1.0	-1.0	0.0	marker	opened-hand	Open	8	0418
-65888.01	-52662.96	-101504.11499999999	-17688.285	0.0	0.0	0.0	0.0	0.0	0.0	0.0	0.0	0.0	0.0	0.0	0.0	0.0	0.0	146.0	0.0	0.01330563	-0.062255700000000004	1.015317225	3.26564	0.54936	-0.65618	3175089.0	1776544739.82622	0.0	1.0	-1.0	-1.0	-1.0	-1.0	-1.0	-1.0	-1.0	-1.0	0.0	marker	opened-hand	Open	8	0418
-66168.09	-52675.92	-101790.26999999999	-17926.605	0.0	0.0	0.0	0.0	0.0	0.0	0.0	0.0	0.0	0.0	0.0	0.0	0.0	0.0	146.0	0.0	0.00524901	-0.060607755	1.0173313800000001	2.73154	0.09156	-1.17502	3175090.0	1776544739.830262	0.0	1.0	-1.0	-1.0	-1.0	-1.0	-1.0	-1.0	-1.0	-1.0	0.0	marker	opened-hand	Open	8	0418
-66368.11499999999	-52683.57	-101947.815	-18092.07	0.0	0.0	0.0	0.0	0.0	0.0	0.0	0.0	0.0	0.0	0.0	0.0	0.0	0.0	146.0	0.0	0.00524901	-0.060607755	1.0173313800000001	2.73154	0.09156	-1.17502	3175091.0	1776544739.830277	0.0	1.0	-1.0	-1.0	-1.0	-1.0	-1.0	-1.0	-1.0	-1.0	0.0	marker	opened-hand	Open	8	0418
-66217.23	-52663.14	-101765.25	-17915.895	0.0	0.0	0.0	0.0	0.0	0.0	0.0	0.0	0.0	0.0	0.0	0.0	0.0	0.0	146.0	0.0	0.00524901	-0.060607755	1.0173313800000001	2.73154	0.09156	-1.17502	3175092.0	1776544739.83434	0.0	1.0	-1.0	-1.0	-1.0	-1.0	-1.0	-1.0	-1.0	-1.0	0.0	marker	opened-hand	Open	8	0418
-66129.84	-52655.759999999995	-101667.19499999999	-17791.829999999998	0.0	0.0	0.0	0.0	0.0	0.0	0.0	0.0	0.0	0.0	0.0	0.0	0.0	0.0	146.0	0.0	0.00524901	-0.060607755	1.0173313800000001	2.73154	0.09156	-1.17502	3175093.0	1776544739.834355	0.0	1.0	-1.0	-1.0	-1.0	-1.0	-1.0	-1.0	-1.0	-1.0	0.0	marker	opened-hand	Open	8	0418
-66088.395	-52660.89	-101612.295	-17775.899999999998	0.0	0.0	0.0	0.0	0.0	0.0	0.0	0.0	0.0	0.0	0.0	0.0	0.0	0.0	146.0	0.0	0.00524901	-0.060607755	1.0173313800000001	2.73154	0.09156	-1.17502	3175094.0	1776544739.83823	0.0	1.0	-1.0	-1.0	-1.0	-1.0	-1.0	-1.0	-1.0	-1.0	0.0	marker	opened-hand	Open	8	0418
-66135.825	-52660.575	-101607.03	-17766.0	0.0	0.0	0.0	0.0	0.0	0.0	0.0	0.0	0.0	0.0	0.0	0.0	0.0	0.0	146.0	0.0	0.00524901	-0.060607755	1.0173313800000001	2.73154	0.09156	-1.17502	3175095.0	1776544739.838245	0.0	1.0	-1.0	-1.0	-1.0	-1.0	-1.0	-1.0	-1.0	-1.0	0.0	marker	opened-hand	Open	8	0418
-66288.95999999999	-52661.52	-101699.28	-17840.61	0.0	0.0	0.0	0.0	0.0	0.0	0.0	0.0	0.0	0.0	0.0	0.0	0.0	0.0	146.0	0.0	0.00524901	-0.060607755	1.0173313800000001	2.73154	0.09156	-1.17502	3175096.0	1776544739.84223	0.0	1.0	-1.0	-1.0	-1.0	-1.0	-1.0	-1.0	-1.0	-1.0	0.0	marker	opened-hand	Open	8	0418
-66221.235	-52655.579999999994	-101754.18	-17922.555	0.0	0.0	0.0	0.0	0.0	0.0	0.0	0.0	0.0	0.0	0.0	0.0	0.0	0.0	146.0	0.0	0.00524901	-0.060607755	1.0173313800000001	2.73154	0.09156	-1.17502	3175097.0	1776544739.842244	0.0	1.0	-1.0	-1.0	-1.0	-1.0	-1.0	-1.0	-1.0	-1.0	0.0	marker	opened-hand	Open	8	0418
-66262.995	-52650.99	-101866.095	-18047.295	0.0	0.0	0.0	0.0	0.0	0.0	0.0	0.0	0.0	0.0	0.0	0.0	0.0	0.0	146.0	0.0	0.00524901	-0.060607755	1.0173313800000001	2.73154	0.09156	-1.17502	3175098.0	1776544739.846293	0.0	1.0	-1.0	-1.0	-1.0	-1.0	-1.0	-1.0	-1.0	-1.0	0.0	marker	opened-hand	Open	8	0418
-66285.765	-52657.064999999995	-101892.42	-18080.415	0.0	0.0	0.0	0.0	0.0	0.0	0.0	0.0	0.0	0.0	0.0	0.0	0.0	0.0	146.0	0.0	0.00524901	-0.060607755	1.0173313800000001	2.73154	0.09156	-1.17502	3175099.0	1776544739.846302	0.0	1.0	-1.0	-1.0	-1.0	-1.0	-1.0	-1.0	-1.0	-1.0	0.0	marker	opened-hand	Open	8	0418
-66138.75	-52666.11	-101721.015	-17901.18	0.0	0.0	0.0	0.0	0.0	0.0	0.0	0.0	0.0	0.0	0.0	0.0	0.0	0.0	146.0	0.0	0.006530745	-0.054138045	1.018491045	1.69386	0.04578	-0.42728	3175100.0	1776544739.85031	0.0	1.0	-1.0	-1.0	-1.0	-1.0	-1.0	-1.0	-1.0	-1.0	0.0	marker	opened-hand	Open	8	0418
-66051.135	-52659.494999999995	-101545.155	-17704.8	0.0	0.0	0.0	0.0	0.0	0.0	0.0	0.0	0.0	0.0	0.0	0.0	0.0	0.0	146.0	0.0	0.006530745	-0.054138045	1.018491045	1.69386	0.04578	-0.42728	3175101.0	1776544739.850315	0.0	1.0	-1.0	-1.0	-1.0	-1.0	-1.0	-1.0	-1.0	-1.0	0.0	marker	opened-hand	Open	8	0418
-65968.38	-52670.97	-101511.315	-17629.965	0.0	0.0	0.0	0.0	0.0	0.0	0.0	0.0	0.0	0.0	0.0	0.0	0.0	0.0	146.0	0.0	0.006530745	-0.054138045	1.018491045	1.69386	0.04578	-0.42728	3175102.0	1776544739.854325	0.0	1.0	-1.0	-1.0	-1.0	-1.0	-1.0	-1.0	-1.0	-1.0	0.0	marker	opened-hand	Open	8	0418
-66155.13	-52691.985	-101706.3	-17742.195	0.0	0.0	0.0	0.0	0.0	0.0	0.0	0.0	0.0	0.0	0.0	0.0	0.0	0.0	146.0	0.0	0.006530745	-0.054138045	1.018491045	1.69386	0.04578	-0.42728	3175103.0	1776544739.85434	0.0	1.0	-1.0	-1.0	-1.0	-1.0	-1.0	-1.0	-1.0	-1.0	0.0	marker	opened-hand	Open	8	0418
-66246.61499999999	-52704.045	-101741.89499999999	-17875.17	0.0	0.0	0.0	0.0	0.0	0.0	0.0	0.0	0.0	0.0	0.0	0.0	0.0	0.0	146.0	0.0	0.006530745	-0.054138045	1.018491045	1.69386	0.04578	-0.42728	3175104.0	1776544739.858133	0.0	1.0	-1.0	-1.0	-1.0	-1.0	-1.0	-1.0	-1.0	-1.0	0.0	marker	opened-hand	Open	8	0418
-66176.37	-52705.755	-101685.285	-17877.6	0.0	0.0	0.0	0.0	0.0	0.0	0.0	0.0	0.0	0.0	0.0	0.0	0.0	0.0	146.0	0.0	0.006530745	-0.054138045	1.018491045	1.69386	0.04578	-0.42728	3175105.0	1776544739.858147	0.0	1.0	-1.0	-1.0	-1.0	-1.0	-1.0	-1.0	-1.0	-1.0	0.0	marker	opened-hand	Open	8	0418
-66223.485	-52707.15	-101761.37999999999	-17930.88	0.0	0.0	0.0	0.0	0.0	0.0	0.0	0.0	0.0	0.0	0.0	0.0	0.0	0.0	146.0	0.0	0.006530745	-0.054138045	1.018491045	1.69386	0.04578	-0.42728	3175106.0	1776544739.865322	0.0	1.0	-1.0	-1.0	-1.0	-1.0	-1.0	-1.0	-1.0	-1.0	0.0	marker	opened-hand	Open	8	0418
-66259.305	-52695.765	-101772.26999999999	-17902.395	0.0	0.0	0.0	0.0	0.0	0.0	0.0	0.0	0.0	0.0	0.0	0.0	0.0	0.0	146.0	0.0	0.006530745	-0.054138045	1.018491045	1.69386	0.04578	-0.42728	3175107.0	1776544739.865337	0.0	1.0	-1.0	-1.0	-1.0	-1.0	-1.0	-1.0	-1.0	-1.0	0.0	marker	opened-hand	Open	8	0418
-66241.845	-52684.829999999994	-101775.555	-17909.1	0.0	0.0	0.0	0.0	0.0	0.0	0.0	0.0	0.0	0.0	0.0	0.0	0.0	0.0	146.0	0.0	0.006530745	-0.054138045	1.018491045	1.69386	0.04578	-0.42728	3175108.0	1776544739.868233	0.0	1.0	-1.0	-1.0	-1.0	-1.0	-1.0	-1.0	-1.0	-1.0	0.0	marker	opened-hand	Open	8	0418
-66002.67	-52673.445	-101669.805	-17817.03	0.0	0.0	0.0	0.0	0.0	0.0	0.0	0.0	0.0	0.0	0.0	0.0	0.0	0.0	146.0	0.0	0.006530745	-0.054138045	1.018491045	1.69386	0.04578	-0.42728	3175109.0	1776544739.868248	0.0	1.0	-1.0	-1.0	-1.0	-1.0	-1.0	-1.0	-1.0	-1.0	0.0	marker	opened-hand	Open	8	0418
-65929.05	-52675.38	-101496.735	-17657.505	0.0	0.0	0.0	0.0	0.0	0.0	0.0	0.0	0.0	0.0	0.0	0.0	0.0	0.0	146.0	0.0	0.005065905	-0.053039415	1.02062727	1.63282	-0.73248	0.07629999999999999	3175110.0	1776544739.871214	0.0	1.0	-1.0	-1.0	-1.0	-1.0	-1.0	-1.0	-1.0	-1.0	0.0	marker	opened-hand	Open	8	0418
-66190.05	-52709.354999999996	-101629.89	-17784.045	0.0	0.0	0.0	0.0	0.0	0.0	0.0	0.0	0.0	0.0	0.0	0.0	0.0	0.0	146.0	0.0	0.005065905	-0.053039415	1.02062727	1.63282	-0.73248	0.07629999999999999	3175111.0	1776544739.871232	0.0	1.0	-1.0	-1.0	-1.0	-1.0	-1.0	-1.0	-1.0	-1.0	0.0	marker	opened-hand	Open	8	0418
-66339.855	-52731.405	-101872.98	-18040.005	0.0	0.0	0.0	0.0	0.0	0.0	0.0	0.0	0.0	0.0	0.0	0.0	0.0	0.0	146.0	0.0	0.005065905	-0.053039415	1.02062727	1.63282	-0.73248	0.07629999999999999	3175112.0	1776544739.874332	0.0	1.0	-1.0	-1.0	-1.0	-1.0	-1.0	-1.0	-1.0	-1.0	0.0	marker	opened-hand	Open	8	0418
-66241.395	-52735.095	-101853.9	-18038.565	0.0	0.0	0.0	0.0	0.0	0.0	0.0	0.0	0.0	0.0	0.0	0.0	0.0	0.0	146.0	0.0	0.005065905	-0.053039415	1.02062727	1.63282	-0.73248	0.07629999999999999	3175113.0	1776544739.874338	0.0	1.0	-1.0	-1.0	-1.0	-1.0	-1.0	-1.0	-1.0	-1.0	0.0	marker	opened-hand	Open	8	0418
-66159.54	-52719.255	-101760.12	-17911.35	0.0	0.0	0.0	0.0	0.0	0.0	0.0	0.0	0.0	0.0	0.0	0.0	0.0	0.0	146.0	0.0	0.005065905	-0.053039415	1.02062727	1.63282	-0.73248	0.07629999999999999	3175114.0	1776544739.878431	0.0	1.0	-1.0	-1.0	-1.0	-1.0	-1.0	-1.0	-1.0	-1.0	0.0	marker	opened-hand	Open	8	0418
-66166.29	-52709.31	-101716.65	-17847.225	0.0	0.0	0.0	0.0	0.0	0.0	0.0	0.0	0.0	0.0	0.0	0.0	0.0	0.0	146.0	0.0	0.005065905	-0.053039415	1.02062727	1.63282	-0.73248	0.07629999999999999	3175115.0	1776544739.878461	0.0	1.0	-1.0	-1.0	-1.0	-1.0	-1.0	-1.0	-1.0	-1.0	0.0	marker	opened-hand	Open	8	0418
-65976.075	-52695.854999999996	-101525.355	-17744.985	0.0	0.0	0.0	0.0	0.0	0.0	0.0	0.0	0.0	0.0	0.0	0.0	0.0	0.0	146.0	0.0	0.005065905	-0.053039415	1.02062727	1.63282	-0.73248	0.07629999999999999	3175116.0	1776544739.882384	0.0	1.0	-1.0	-1.0	-1.0	-1.0	-1.0	-1.0	-1.0	-1.0	0.0	marker	opened-hand	Open	8	0418
-66101.4	-52700.715	-101644.11	-17782.92	0.0	0.0	0.0	0.0	0.0	0.0	0.0	0.0	0.0	0.0	0.0	0.0	0.0	0.0	146.0	0.0	0.005065905	-0.053039415	1.02062727	1.63282	-0.73248	0.07629999999999999	3175117.0	1776544739.882399	0.0	1.0	-1.0	-1.0	-1.0	-1.0	-1.0	-1.0	-1.0	-1.0	0.0	marker	opened-hand	Open	8	0418
-66254.175	-52710.165	-101800.08	-17910.855	0.0	0.0	0.0	0.0	0.0	0.0	0.0	0.0	0.0	0.0	0.0	0.0	0.0	0.0	146.0	0.0	0.005065905	-0.053039415	1.02062727	1.63282	-0.73248	0.07629999999999999	3175118.0	1776544739.886323	0.0	1.0	-1.0	-1.0	-1.0	-1.0	-1.0	-1.0	-1.0	-1.0	0.0	marker	opened-hand	Open	8	0418
-66334.815	-52721.64	-101863.035	-18050.265	0.0	0.0	0.0	0.0	0.0	0.0	0.0	0.0	0.0	0.0	0.0	0.0	0.0	0.0	146.0	0.0	0.005065905	-0.053039415	1.02062727	1.63282	-0.73248	0.07629999999999999	3175119.0	1776544739.886338	0.0	1.0	-1.0	-1.0	-1.0	-1.0	-1.0	-1.0	-1.0	-1.0	0.0	marker	opened-hand	Open	8	0418
-66191.355	-52713.45	-101663.64	-17819.505	0.0	0.0	0.0	0.0	0.0	0.0	0.0	0.0	0.0	0.0	0.0	0.0	0.0	0.0	146.0	0.0	0.006896955	-0.05432115	1.0147068750000001	1.2207999999999999	-0.18312	-1.05294	3175120.0	1776544739.890447	0.0	1.0	-1.0	-1.0	-1.0	-1.0	-1.0	-1.0	-1.0	-1.0	0.0	marker	opened-hand	Open	8	0418
-65955.015	-52689.104999999996	-101449.34999999999	-17550.27	0.0	0.0	0.0	0.0	0.0	0.0	0.0	0.0	0.0	0.0	0.0	0.0	0.0	0.0	146.0	0.0	0.006896955	-0.05432115	1.0147068750000001	1.2207999999999999	-0.18312	-1.05294	3175121.0	1776544739.890462	0.0	1.0	-1.0	-1.0	-1.0	-1.0	-1.0	-1.0	-1.0	-1.0	0.0	marker	opened-hand	Open	8	0418
-66045.23999999999	-52683.255	-101697.93	-17762.67	0.0	0.0	0.0	0.0	0.0	0.0	0.0	0.0	0.0	0.0	0.0	0.0	0.0	0.0	146.0	0.0	0.006896955	-0.05432115	1.0147068750000001	1.2207999999999999	-0.18312	-1.05294	3175122.0	1776544739.89455	0.0	1.0	-1.0	-1.0	-1.0	-1.0	-1.0	-1.0	-1.0	-1.0	0.0	marker	opened-hand	Open	8	0418
-66170.47499999999	-52681.725	-101848.815	-17998.29	0.0	0.0	0.0	0.0	0.0	0.0	0.0	0.0	0.0	0.0	0.0	0.0	0.0	0.0	146.0	0.0	0.006896955	-0.05432115	1.0147068750000001	1.2207999999999999	-0.18312	-1.05294	3175123.0	1776544739.894556	0.0	1.0	-1.0	-1.0	-1.0	-1.0	-1.0	-1.0	-1.0	-1.0	0.0	marker	opened-hand	Open	8	0418
-66290.895	-52680.104999999996	-101852.775	-18053.235	0.0	0.0	0.0	0.0	0.0	0.0	0.0	0.0	0.0	0.0	0.0	0.0	0.0	0.0	146.0	0.0	0.006896955	-0.05432115	1.0147068750000001	1.2207999999999999	-0.18312	-1.05294	3175124.0	1776544739.898581	0.0	1.0	-1.0	-1.0	-1.0	-1.0	-1.0	-1.0	-1.0	-1.0	0.0	marker	opened-hand	Open	8	0418
-66227.13	-52676.145	-101789.235	-17975.07	0.0	0.0	0.0	0.0	0.0	0.0	0.0	0.0	0.0	0.0	0.0	0.0	0.0	0.0	146.0	0.0	0.006896955	-0.05432115	1.0147068750000001	1.2207999999999999	-0.18312	-1.05294	3175125.0	1776544739.898588	0.0	1.0	-1.0	-1.0	-1.0	-1.0	-1.0	-1.0	-1.0	-1.0	0.0	marker	opened-hand	Open	8	0418
-66271.68	-52684.155	-101889.72	-18015.12	0.0	0.0	0.0	0.0	0.0	0.0	0.0	0.0	0.0	0.0	0.0	0.0	0.0	0.0	146.0	0.0	0.006896955	-0.05432115	1.0147068750000001	1.2207999999999999	-0.18312	-1.05294	3175126.0	1776544739.902507	0.0	1.0	-1.0	-1.0	-1.0	-1.0	-1.0	-1.0	-1.0	-1.0	0.0	marker	opened-hand	Open	8	0418
-66303.405	-52698.465	-101865.51	-17995.23	0.0	0.0	0.0	0.0	0.0	0.0	0.0	0.0	0.0	0.0	0.0	0.0	0.0	0.0	146.0	0.0	0.006896955	-0.05432115	1.0147068750000001	1.2207999999999999	-0.18312	-1.05294	3175127.0	1776544739.902521	0.0	1.0	-1.0	-1.0	-1.0	-1.0	-1.0	-1.0	-1.0	-1.0	0.0	marker	opened-hand	Open	8	0418
-66146.805	-52700.354999999996	-101687.89499999999	-17827.38	0.0	0.0	0.0	0.0	0.0	0.0	0.0	0.0	0.0	0.0	0.0	0.0	0.0	0.0	146.0	0.0	0.006896955	-0.05432115	1.0147068750000001	1.2207999999999999	-0.18312	-1.05294	3175128.0	1776544739.906485	0.0	1.0	-1.0	-1.0	-1.0	-1.0	-1.0	-1.0	-1.0	-1.0	0.0	marker	opened-hand	Open	8	0418
-66148.29	-52710.615	-101717.81999999999	-17866.71	0.0	0.0	0.0	0.0	0.0	0.0	0.0	0.0	0.0	0.0	0.0	0.0	0.0	0.0	146.0	0.0	0.006896955	-0.05432115	1.0147068750000001	1.2207999999999999	-0.18312	-1.05294	3175129.0	1776544739.9065	0.0	1.0	-1.0	-1.0	-1.0	-1.0	-1.0	-1.0	-1.0	-1.0	0.0	marker	opened-hand	Open	8	0418
-66216.33	-52720.47	-101748.78	-17908.92	0.0	0.0	0.0	0.0	0.0	0.0	0.0	0.0	0.0	0.0	0.0	0.0	0.0	0.0	146.0	0.0	0.011413545	-0.06164535	1.0141575600000001	2.48738	0.33571999999999996	-0.763	3175130.0	1776544739.910422	0.0	1.0	-1.0	-1.0	-1.0	-1.0	-1.0	-1.0	-1.0	-1.0	0.0	marker	opened-hand	Open	8	0418
-66324.015	-52722.99	-101846.205	-17985.285	0.0	0.0	0.0	0.0	0.0	0.0	0.0	0.0	0.0	0.0	0.0	0.0	0.0	0.0	146.0	0.0	0.011413545	-0.06164535	1.0141575600000001	2.48738	0.33571999999999996	-0.763	3175131.0	1776544739.910436	0.0	1.0	-1.0	-1.0	-1.0	-1.0	-1.0	-1.0	-1.0	-1.0	0.0	marker	opened-hand	Open	8	0418
-66296.745	-52715.115	-101845.44	-17974.395	0.0	0.0	0.0	0.0	0.0	0.0	0.0	0.0	0.0	0.0	0.0	0.0	0.0	0.0	146.0	0.0	0.011413545	-0.06164535	1.0141575600000001	2.48738	0.33571999999999996	-0.763	3175132.0	1776544739.914744	0.0	1.0	-1.0	-1.0	-1.0	-1.0	-1.0	-1.0	-1.0	-1.0	0.0	marker	opened-hand	Open	8	0418
-66167.28	-52714.439999999995	-101715.705	-17855.82	0.0	0.0	0.0	0.0	0.0	0.0	0.0	0.0	0.0	0.0	0.0	0.0	0.0	0.0	146.0	0.0	0.011413545	-0.06164535	1.0141575600000001	2.48738	0.33571999999999996	-0.763	3175133.0	1776544739.914758	0.0	1.0	-1.0	-1.0	-1.0	-1.0	-1.0	-1.0	-1.0	-1.0	0.0	marker	opened-hand	Open	8	0418
-66064.995	-52714.079999999994	-101676.78	-17813.88	0.0	0.0	0.0	0.0	0.0	0.0	0.0	0.0	0.0	0.0	0.0	0.0	0.0	0.0	146.0	0.0	0.011413545	-0.06164535	1.0141575600000001	2.48738	0.33571999999999996	-0.763	3175134.0	1776544739.918567	0.0	1.0	-1.0	-1.0	-1.0	-1.0	-1.0	-1.0	-1.0	-1.0	0.0	marker	opened-hand	Open	8	0418
-66113.505	-52714.845	-101714.12999999999	-17880.75	0.0	0.0	0.0	0.0	0.0	0.0	0.0	0.0	0.0	0.0	0.0	0.0	0.0	0.0	146.0	0.0	0.011413545	-0.06164535	1.0141575600000001	2.48738	0.33571999999999996	-0.763	3175135.0	1776544739.918581	0.0	1.0	-1.0	-1.0	-1.0	-1.0	-1.0	-1.0	-1.0	-1.0	0.0	marker	opened-hand	Open	8	0418
-66124.575	-52722.314999999995	-101676.825	-17859.239999999998	0.0	0.0	0.0	0.0	0.0	0.0	0.0	0.0	0.0	0.0	0.0	0.0	0.0	0.0	146.0	0.0	0.011413545	-0.06164535	1.0141575600000001	2.48738	0.33571999999999996	-0.763	3175136.0	1776544739.922553	0.0	1.0	-1.0	-1.0	-1.0	-1.0	-1.0	-1.0	-1.0	-1.0	0.0	marker	opened-hand	Open	8	0418
-66109.77	-52744.32	-101614.905	-17790.39	0.0	0.0	0.0	0.0	0.0	0.0	0.0	0.0	0.0	0.0	0.0	0.0	0.0	0.0	146.0	0.0	0.011413545	-0.06164535	1.0141575600000001	2.48738	0.33571999999999996	-0.763	3175137.0	1776544739.922567	0.0	1.0	-1.0	-1.0	-1.0	-1.0	-1.0	-1.0	-1.0	-1.0	0.0	marker	opened-hand	Open	8	0418
-66095.145	-52755.255	-101621.295	-17777.43	0.0	0.0	0.0	0.0	0.0	0.0	0.0	0.0	0.0	0.0	0.0	0.0	0.0	0.0	146.0	0.0	0.011413545	-0.06164535	1.0141575600000001	2.48738	0.33571999999999996	-0.763	3175138.0	1776544739.927068	0.0	1.0	-1.0	-1.0	-1.0	-1.0	-1.0	-1.0	-1.0	-1.0	0.0	marker	opened-hand	Open	8	0418
-66068.235	-52745.354999999996	-101600.45999999999	-17747.594999999998	0.0	0.0	0.0	0.0	0.0	0.0	0.0	0.0	0.0	0.0	0.0	0.0	0.0	0.0	146.0	0.0	0.011413545	-0.06164535	1.0141575600000001	2.48738	0.33571999999999996	-0.763	3175139.0	1776544739.927084	0.0	1.0	-1.0	-1.0	-1.0	-1.0	-1.0	-1.0	-1.0	-1.0	0.0	marker	opened-hand	Open	8	0418
-65923.515	-52720.604999999996	-101507.265	-17638.695	0.0	0.0	0.0	0.0	0.0	0.0	0.0	0.0	0.0	0.0	0.0	0.0	0.0	0.0	146.0	0.0	0.007873515	-0.06237777	1.0147068750000001	3.4945399999999998	0.03052	-0.3815	3175140.0	1776544739.931559	0.0	1.0	-1.0	-1.0	-1.0	-1.0	-1.0	-1.0	-1.0	-1.0	0.0	marker	opened-hand	Open	8	0418
-66103.515	-52728.704999999994	-101633.265	-17755.245	0.0	0.0	0.0	0.0	0.0	0.0	0.0	0.0	0.0	0.0	0.0	0.0	0.0	0.0	146.0	0.0	0.007873515	-0.06237777	1.0147068750000001	3.4945399999999998	0.03052	-0.3815	3175141.0	1776544739.931574	0.0	1.0	-1.0	-1.0	-1.0	-1.0	-1.0	-1.0	-1.0	-1.0	0.0	marker	opened-hand	Open	8	0418
-66164.04	-52737.299999999996	-101696.715	-17846.19	0.0	0.0	0.0	0.0	0.0	0.0	0.0	0.0	0.0	0.0	0.0	0.0	0.0	0.0	146.0	0.0	0.007873515	-0.06237777	1.0147068750000001	3.4945399999999998	0.03052	-0.3815	3175142.0	1776544739.934519	0.0	1.0	-1.0	-1.0	-1.0	-1.0	-1.0	-1.0	-1.0	-1.0	0.0	marker	opened-hand	Open	8	0418
-66264.075	-52738.515	-101781.22499999999	-17918.28	0.0	0.0	0.0	0.0	0.0	0.0	0.0	0.0	0.0	0.0	0.0	0.0	0.0	0.0	146.0	0.0	0.007873515	-0.06237777	1.0147068750000001	3.4945399999999998	0.03052	-0.3815	3175143.0	1776544739.934534	0.0	1.0	-1.0	-1.0	-1.0	-1.0	-1.0	-1.0	-1.0	-1.0	0.0	marker	opened-hand	Open	8	0418
-66388.36499999999	-52737.299999999996	-101936.06999999999	-18055.35	0.0	0.0	0.0	0.0	0.0	0.0	0.0	0.0	0.0	0.0	0.0	0.0	0.0	0.0	146.0	0.0	0.007873515	-0.06237777	1.0147068750000001	3.4945399999999998	0.03052	-0.3815	3175144.0	1776544739.938639	0.0	1.0	-1.0	-1.0	-1.0	-1.0	-1.0	-1.0	-1.0	-1.0	0.0	marker	opened-hand	Open	8	0418
-66274.245	-52739.369999999995	-101928.64499999999	-18057.69	0.0	0.0	0.0	0.0	0.0	0.0	0.0	0.0	0.0	0.0	0.0	0.0	0.0	0.0	146.0	0.0	0.007873515	-0.06237777	1.0147068750000001	3.4945399999999998	0.03052	-0.3815	3175145.0	1776544739.938653	0.0	1.0	-1.0	-1.0	-1.0	-1.0	-1.0	-1.0	-1.0	-1.0	0.0	marker	opened-hand	Open	8	0418
-66177.135	-52723.799999999996	-101799.94499999999	-17950.95	0.0	0.0	0.0	0.0	0.0	0.0	0.0	0.0	0.0	0.0	0.0	0.0	0.0	0.0	146.0	0.0	0.007873515	-0.06237777	1.0147068750000001	3.4945399999999998	0.03052	-0.3815	3175146.0	1776544739.942539	0.0	1.0	-1.0	-1.0	-1.0	-1.0	-1.0	-1.0	-1.0	-1.0	0.0	marker	opened-hand	Open	8	0418
-66175.92	-52711.29	-101773.485	-17931.42	0.0	0.0	0.0	0.0	0.0	0.0	0.0	0.0	0.0	0.0	0.0	0.0	0.0	0.0	146.0	0.0	0.007873515	-0.06237777	1.0147068750000001	3.4945399999999998	0.03052	-0.3815	3175147.0	1776544739.942554	0.0	1.0	-1.0	-1.0	-1.0	-1.0	-1.0	-1.0	-1.0	-1.0	0.0	marker	opened-hand	Open	8	0418
-66116.97	-52698.15	-101667.915	-17801.55	0.0	0.0	0.0	0.0	0.0	0.0	0.0	0.0	0.0	0.0	0.0	0.0	0.0	0.0	146.0	0.0	0.007873515	-0.06237777	1.0147068750000001	3.4945399999999998	0.03052	-0.3815	3175148.0	1776544739.946567	0.0	1.0	-1.0	-1.0	-1.0	-1.0	-1.0	-1.0	-1.0	-1.0	0.0	marker	opened-hand	Open	8	0418
-65981.83499999999	-52676.595	-101524.635	-17641.755	0.0	0.0	0.0	0.0	0.0	0.0	0.0	0.0	0.0	0.0	0.0	0.0	0.0	0.0	146.0	0.0	0.007873515	-0.06237777	1.0147068750000001	3.4945399999999998	0.03052	-0.3815	3175149.0	1776544739.946593	0.0	1.0	-1.0	-1.0	-1.0	-1.0	-1.0	-1.0	-1.0	-1.0	0.0	marker	opened-hand	Open	8	0418
-66102.61499999999	-52673.85	-101628.22499999999	-17735.04	0.0	0.0	0.0	0.0	0.0	0.0	0.0	0.0	0.0	0.0	0.0	0.0	0.0	0.0	146.0	0.0	0.00793455	-0.05383287	1.0115330550000001	2.4110799999999997	0.30519999999999997	-0.56462	3175150.0	1776544739.950626	0.0	1.0	-1.0	-1.0	-1.0	-1.0	-1.0	-1.0	-1.0	-1.0	0.0	marker	opened-hand	Open	8	0418
-66089.385	-52677.405	-101658.87	-17811.899999999998	0.0	0.0	0.0	0.0	0.0	0.0	0.0	0.0	0.0	0.0	0.0	0.0	0.0	0.0	146.0	0.0	0.00793455	-0.05383287	1.0115330550000001	2.4110799999999997	0.30519999999999997	-0.56462	3175151.0	1776544739.950644	0.0	1.0	-1.0	-1.0	-1.0	-1.0	-1.0	-1.0	-1.0	-1.0	0.0	marker	opened-hand	Open	8	0418
-66026.205	-52680.42	-101589.39	-17715.78	0.0	0.0	0.0	0.0	0.0	0.0	0.0	0.0	0.0	0.0	0.0	0.0	0.0	0.0	146.0	0.0	0.00793455	-0.05383287	1.0115330550000001	2.4110799999999997	0.30519999999999997	-0.56462	3175152.0	1776544739.955985	0.0	1.0	-1.0	-1.0	-1.0	-1.0	-1.0	-1.0	-1.0	-1.0	0.0	marker	opened-hand	Open	8	0418
-66278.295	-52699.14	-101781.26999999999	-17898.434999999998	0.0	0.0	0.0	0.0	0.0	0.0	0.0	0.0	0.0	0.0	0.0	0.0	0.0	0.0	146.0	0.0	0.00793455	-0.05383287	1.0115330550000001	2.4110799999999997	0.30519999999999997	-0.56462	3175153.0	1776544739.956011	0.0	1.0	-1.0	-1.0	-1.0	-1.0	-1.0	-1.0	-1.0	-1.0	0.0	marker	opened-hand	Open	8	0418
-66374.37	-52705.845	-101824.73999999999	-18042.795	0.0	0.0	0.0	0.0	0.0	0.0	0.0	0.0	0.0	0.0	0.0	0.0	0.0	0.0	146.0	0.0	0.00793455	-0.05383287	1.0115330550000001	2.4110799999999997	0.30519999999999997	-0.56462	3175154.0	1776544739.958692	0.0	1.0	-1.0	-1.0	-1.0	-1.0	-1.0	-1.0	-1.0	-1.0	0.0	marker	opened-hand	Open	8	0418
-66276.94499999999	-52703.28	-101788.11	-17994.42	0.0	0.0	0.0	0.0	0.0	0.0	0.0	0.0	0.0	0.0	0.0	0.0	0.0	0.0	146.0	0.0	0.00793455	-0.05383287	1.0115330550000001	2.4110799999999997	0.30519999999999997	-0.56462	3175155.0	1776544739.95871	0.0	1.0	-1.0	-1.0	-1.0	-1.0	-1.0	-1.0	-1.0	-1.0	0.0	marker	opened-hand	Open	8	0418
-66193.065	-52682.895	-101789.64	-17926.695	0.0	0.0	0.0	0.0	0.0	0.0	0.0	0.0	0.0	0.0	0.0	0.0	0.0	0.0	146.0	0.0	0.00793455	-0.05383287	1.0115330550000001	2.4110799999999997	0.30519999999999997	-0.56462	3175156.0	1776544739.962695	0.0	1.0	-1.0	-1.0	-1.0	-1.0	-1.0	-1.0	-1.0	-1.0	0.0	marker	opened-hand	Open	8	0418
-66210.97499999999	-52670.384999999995	-101832.56999999999	-17898.48	0.0	0.0	0.0	0.0	0.0	0.0	0.0	0.0	0.0	0.0	0.0	0.0	0.0	0.0	146.0	0.0	0.00793455	-0.05383287	1.0115330550000001	2.4110799999999997	0.30519999999999997	-0.56462	3175157.0	1776544739.962716	0.0	1.0	-1.0	-1.0	-1.0	-1.0	-1.0	-1.0	-1.0	-1.0	0.0	marker	opened-hand	Open	8	0418
-66272.04	-52665.39	-101812.41	-17871.39	0.0	0.0	0.0	0.0	0.0	0.0	0.0	0.0	0.0	0.0	0.0	0.0	0.0	0.0	146.0	0.0	0.00793455	-0.05383287	1.0115330550000001	2.4110799999999997	0.30519999999999997	-0.56462	3175158.0	1776544739.967805	0.0	1.0	-1.0	-1.0	-1.0	-1.0	-1.0	-1.0	-1.0	-1.0	0.0	marker	opened-hand	Open	8	0418
-66324.645	-52665.345	-101773.89	-17879.67	0.0	0.0	0.0	0.0	0.0	0.0	0.0	0.0	0.0	0.0	0.0	0.0	0.0	0.0	146.0	0.0	0.00793455	-0.05383287	1.0115330550000001	2.4110799999999997	0.30519999999999997	-0.56462	3175159.0	1776544739.967826	0.0	1.0	-1.0	-1.0	-1.0	-1.0	-1.0	-1.0	-1.0	-1.0	0.0	marker	opened-hand	Open	8	0418
-66189.105	-52655.67	-101733.66	-17883.719999999998	0.0	0.0	0.0	0.0	0.0	0.0	0.0	0.0	0.0	0.0	0.0	0.0	0.0	0.0	146.0	0.0	0.011535615	-0.056213235	1.017148275	2.01432	0.09156	-0.01526	3175160.0	1776544739.970687	0.0	1.0	-1.0	-1.0	-1.0	-1.0	-1.0	-1.0	-1.0	-1.0	0.0	marker	opened-hand	Open	8	0418
-66115.215	-52649.729999999996	-101656.75499999999	-17787.239999999998	0.0	0.0	0.0	0.0	0.0	0.0	0.0	0.0	0.0	0.0	0.0	0.0	0.0	0.0	146.0	0.0	0.011535615	-0.056213235	1.017148275	2.01432	0.09156	-0.01526	3175161.0	1776544739.970714	0.0	1.0	-1.0	-1.0	-1.0	-1.0	-1.0	-1.0	-1.0	-1.0	0.0	marker	opened-hand	Open	8	0418
-66118.68	-52646.895	-101714.04	-17865.18	0.0	0.0	0.0	0.0	0.0	0.0	0.0	0.0	0.0	0.0	0.0	0.0	0.0	0.0	146.0	0.0	0.011535615	-0.056213235	1.017148275	2.01432	0.09156	-0.01526	3175162.0	1776544739.974698	0.0	1.0	-1.0	-1.0	-1.0	-1.0	-1.0	-1.0	-1.0	-1.0	0.0	marker	opened-hand	Open	8	0418
-66033.22499999999	-52634.835	-101688.61499999999	-17859.195	0.0	0.0	0.0	0.0	0.0	0.0	0.0	0.0	0.0	0.0	0.0	0.0	0.0	0.0	146.0	0.0	0.011535615	-0.056213235	1.017148275	2.01432	0.09156	-0.01526	3175163.0	1776544739.974721	0.0	1.0	-1.0	-1.0	-1.0	-1.0	-1.0	-1.0	-1.0	-1.0	0.0	marker	opened-hand	Open	8	0418
