ch_0	ch_1	ch_2	ch_3	ch_4	ch_5	ch_6	ch_7	ch_8	ch_9	ch_10	ch_11	ch_12	ch_13	ch_14	ch_15	ch_16	ch_17	ch_18	ch_19	ch_20	ch_21	ch_22	ch_23	ch_24	ch_25	ch_26	timestamp	marker	ch_29	ch_30	ch_31	ch_32	ch_33	ch_34	ch_35	ch_36	ch_37	ch_38	MarkerColumn	GestureLabel	CueLabel	SampleNumber	CollectionDate
-66944.565	-53750.88	-103077.58499999999	-18108.405	0.0	0.0	0.0	0.0	0.0	0.0	0.0	0.0	0.0	0.0	0.0	0.0	0.0	0.0	146.0	0.0	0.041259660000000004	-0.107238495	1.0107396	2.9757	0.57988	-0.6409199999999999	3210997.0	1776544811.892231	3.0	1.0	-1.0	-1.0	-1.0	-1.0	-1.0	-1.0	-1.0	-1.0	0.0	marker	opened-hand	Open	15	0418
-66830.67	-53743.14	-102972.69	-17948.79	0.0	0.0	0.0	0.0	0.0	0.0	0.0	0.0	0.0	0.0	0.0	0.0	0.0	0.0	146.0	0.0	0.041259660000000004	-0.107238495	1.0107396	2.9757	0.57988	-0.6409199999999999	3210998.0	1776544811.892249	0.0	1.0	-1.0	-1.0	-1.0	-1.0	-1.0	-1.0	-1.0	-1.0	0.0	marker	opened-hand	Open	15	0418
-66812.94	-53757.9	-103117.815	-17917.155	0.0	0.0	0.0	0.0	0.0	0.0	0.0	0.0	0.0	0.0	0.0	0.0	0.0	0.0	146.0	0.0	0.041259660000000004	-0.107238495	1.0107396	2.9757	0.57988	-0.6409199999999999	3210999.0	1776544811.895923	0.0	1.0	-1.0	-1.0	-1.0	-1.0	-1.0	-1.0	-1.0	-1.0	0.0	marker	opened-hand	Open	15	0418
-66870.27	-53764.65	-103181.58	-17985.96	0.0	0.0	0.0	0.0	0.0	0.0	0.0	0.0	0.0	0.0	0.0	0.0	0.0	0.0	146.0	0.0	0.041259660000000004	-0.107238495	1.0107396	2.9757	0.57988	-0.6409199999999999	3211000.0	1776544811.89594	0.0	1.0	-1.0	-1.0	-1.0	-1.0	-1.0	-1.0	-1.0	-1.0	0.0	marker	opened-hand	Open	15	0418
-66894.75	-53761.229999999996	-103166.055	-18040.5	0.0	0.0	0.0	0.0	0.0	0.0	0.0	0.0	0.0	0.0	0.0	0.0	0.0	0.0	146.0	0.0	0.041259660000000004	-0.107238495	1.0107396	2.9757	0.57988	-0.6409199999999999	3211001.0	1776544811.900273	0.0	1.0	-1.0	-1.0	-1.0	-1.0	-1.0	-1.0	-1.0	-1.0	0.0	marker	opened-hand	Open	15	0418
-66880.845	-53761.454999999994	-103108.455	-17998.38	0.0	0.0	0.0	0.0	0.0	0.0	0.0	0.0	0.0	0.0	0.0	0.0	0.0	0.0	146.0	0.0	0.041259660000000004	-0.107238495	1.0107396	2.9757	0.57988	-0.6409199999999999	3211002.0	1776544811.900289	0.0	1.0	-1.0	-1.0	-1.0	-1.0	-1.0	-1.0	-1.0	-1.0	0.0	marker	opened-hand	Open	15	0418
-66896.37	-53755.829999999994	-103061.79	-17925.255	0.0	0.0	0.0	0.0	0.0	0.0	0.0	0.0	0.0	0.0	0.0	0.0	0.0	0.0	146.0	0.0	0.041259660000000004	-0.107238495	1.0107396	2.9757	0.57988	-0.6409199999999999	3211003.0	1776544811.904211	0.0	1.0	-1.0	-1.0	-1.0	-1.0	-1.0	-1.0	-1.0	-1.0	0.0	marker	opened-hand	Open	15	0418
-66806.955	-53738.685	-102928.815	-17785.35	0.0	0.0	0.0	0.0	0.0	0.0	0.0	0.0	0.0	0.0	0.0	0.0	0.0	0.0	146.0	0.0	0.041259660000000004	-0.107238495	1.0107396	2.9757	0.57988	-0.6409199999999999	3211004.0	1776544811.904227	0.0	1.0	-1.0	-1.0	-1.0	-1.0	-1.0	-1.0	-1.0	-1.0	0.0	marker	opened-hand	Open	15	0418
-66839.94	-53738.909999999996	-102891.465	-17771.76	0.0	0.0	0.0	0.0	0.0	0.0	0.0	0.0	0.0	0.0	0.0	0.0	0.0	0.0	146.0	0.0	0.041259660000000004	-0.107238495	1.0107396	2.9757	0.57988	-0.6409199999999999	3211005.0	1776544811.90817	0.0	1.0	-1.0	-1.0	-1.0	-1.0	-1.0	-1.0	-1.0	-1.0	0.0	marker	opened-hand	Open	15	0418
-66903.93	-53754.615	-103048.01999999999	-17940.6	0.0	0.0	0.0	0.0	0.0	0.0	0.0	0.0	0.0	0.0	0.0	0.0	0.0	0.0	146.0	0.0	0.041259660000000004	-0.107238495	1.0107396	2.9757	0.57988	-0.6409199999999999	3211006.0	1776544811.908185	0.0	1.0	-1.0	-1.0	-1.0	-1.0	-1.0	-1.0	-1.0	-1.0	0.0	marker	opened-hand	Open	15	0418
-66770.01	-53756.28	-103160.51999999999	-18072.27	0.0	0.0	0.0	0.0	0.0	0.0	0.0	0.0	0.0	0.0	0.0	0.0	0.0	0.0	146.0	0.0	0.041808975	-0.11560029000000001	1.0173313800000001	3.9981199999999997	0.01526	-1.63282	3211007.0	1776544811.912441	0.0	1.0	-1.0	-1.0	-1.0	-1.0	-1.0	-1.0	-1.0	-1.0	0.0	marker	opened-hand	Open	15	0418
-66772.125	-53758.35	-103094.37	-18002.07	0.0	0.0	0.0	0.0	0.0	0.0	0.0	0.0	0.0	0.0	0.0	0.0	0.0	0.0	146.0	0.0	0.041808975	-0.11560029000000001	1.0173313800000001	3.9981199999999997	0.01526	-1.63282	3211008.0	1776544811.912456	0.0	1.0	-1.0	-1.0	-1.0	-1.0	-1.0	-1.0	-1.0	-1.0	0.0	marker	opened-hand	Open	15	0418
-66800.295	-53765.505	-103041.495	-17930.88	0.0	0.0	0.0	0.0	0.0	0.0	0.0	0.0	0.0	0.0	0.0	0.0	0.0	0.0	146.0	0.0	0.041808975	-0.11560029000000001	1.0173313800000001	3.9981199999999997	0.01526	-1.63282	3211009.0	1776544811.916171	0.0	1.0	-1.0	-1.0	-1.0	-1.0	-1.0	-1.0	-1.0	-1.0	0.0	marker	opened-hand	Open	15	0418
-66781.44	-53766.674999999996	-103015.125	-17886.195	0.0	0.0	0.0	0.0	0.0	0.0	0.0	0.0	0.0	0.0	0.0	0.0	0.0	0.0	146.0	0.0	0.041808975	-0.11560029000000001	1.0173313800000001	3.9981199999999997	0.01526	-1.63282	3211010.0	1776544811.916186	0.0	1.0	-1.0	-1.0	-1.0	-1.0	-1.0	-1.0	-1.0	-1.0	0.0	marker	opened-hand	Open	15	0418
-66692.745	-53762.939999999995	-102897.09	-17772.12	0.0	0.0	0.0	0.0	0.0	0.0	0.0	0.0	0.0	0.0	0.0	0.0	0.0	0.0	146.0	0.0	0.041808975	-0.11560029000000001	1.0173313800000001	3.9981199999999997	0.01526	-1.63282	3211011.0	1776544811.920312	0.0	1.0	-1.0	-1.0	-1.0	-1.0	-1.0	-1.0	-1.0	-1.0	0.0	marker	opened-hand	Open	15	0418
-66494.43	-53744.04	-102676.995	-17585.55	0.0	0.0	0.0	0.0	0.0	0.0	0.0	0.0	0.0	0.0	0.0	0.0	0.0	0.0	146.0	0.0	0.041808975	-0.11560029000000001	1.0173313800000001	3.9981199999999997	0.01526	-1.63282	3211012.0	1776544811.920327	0.0	1.0	-1.0	-1.0	-1.0	-1.0	-1.0	-1.0	-1.0	-1.0	0.0	marker	opened-hand	Open	15	0418
-66683.79	-53731.665	-102893.48999999999	-17796.96	0.0	0.0	0.0	0.0	0.0	0.0	0.0	0.0	0.0	0.0	0.0	0.0	0.0	0.0	146.0	0.0	0.041808975	-0.11560029000000001	1.0173313800000001	3.9981199999999997	0.01526	-1.63282	3211013.0	1776544811.924914	0.0	1.0	-1.0	-1.0	-1.0	-1.0	-1.0	-1.0	-1.0	-1.0	0.0	marker	opened-hand	Open	15	0418
-66821.58	-53713.575	-103105.935	-17974.844999999998	0.0	0.0	0.0	0.0	0.0	0.0	0.0	0.0	0.0	0.0	0.0	0.0	0.0	0.0	146.0	0.0	0.041808975	-0.11560029000000001	1.0173313800000001	3.9981199999999997	0.01526	-1.63282	3211014.0	1776544811.92493	0.0	1.0	-1.0	-1.0	-1.0	-1.0	-1.0	-1.0	-1.0	-1.0	0.0	marker	opened-hand	Open	15	0418
-66824.81999999999	-53687.655	-103051.39499999999	-17943.12	0.0	0.0	0.0	0.0	0.0	0.0	0.0	0.0	0.0	0.0	0.0	0.0	0.0	0.0	146.0	0.0	0.041808975	-0.11560029000000001	1.0173313800000001	3.9981199999999997	0.01526	-1.63282	3211015.0	1776544811.928219	0.0	1.0	-1.0	-1.0	-1.0	-1.0	-1.0	-1.0	-1.0	-1.0	0.0	marker	opened-hand	Open	15	0418
-67252.68	-53706.915	-103354.155	-18233.19	0.0	0.0	0.0	0.0	0.0	0.0	0.0	0.0	0.0	0.0	0.0	0.0	0.0	0.0	146.0	0.0	0.041808975	-0.11560029000000001	1.0173313800000001	3.9981199999999997	0.01526	-1.63282	3211016.0	1776544811.928234	0.0	1.0	-1.0	-1.0	-1.0	-1.0	-1.0	-1.0	-1.0	-1.0	0.0	marker	opened-hand	Open	15	0418
-67218.12	-53707.905	-103341.69	-18202.815	0.0	0.0	0.0	0.0	0.0	0.0	0.0	0.0	0.0	0.0	0.0	0.0	0.0	0.0	146.0	0.0	0.031555095	-0.11285371500000001	1.019345535	3.8760399999999997	-0.65618	-1.6175599999999999	3211017.0	1776544811.932323	0.0	1.0	-1.0	-1.0	-1.0	-1.0	-1.0	-1.0	-1.0	-1.0	0.0	marker	opened-hand	Open	15	0418
-66872.205	-53690.354999999996	-103165.155	-18062.19	0.0	0.0	0.0	0.0	0.0	0.0	0.0	0.0	0.0	0.0	0.0	0.0	0.0	0.0	146.0	0.0	0.031555095	-0.11285371500000001	1.019345535	3.8760399999999997	-0.65618	-1.6175599999999999	3211018.0	1776544811.932339	0.0	1.0	-1.0	-1.0	-1.0	-1.0	-1.0	-1.0	-1.0	-1.0	0.0	marker	opened-hand	Open	15	0418
-66937.59	-53686.079999999994	-103223.11499999999	-18081.495	0.0	0.0	0.0	0.0	0.0	0.0	0.0	0.0	0.0	0.0	0.0	0.0	0.0	0.0	146.0	0.0	0.031555095	-0.11285371500000001	1.019345535	3.8760399999999997	-0.65618	-1.6175599999999999	3211019.0	1776544811.936276	0.0	1.0	-1.0	-1.0	-1.0	-1.0	-1.0	-1.0	-1.0	-1.0	0.0	marker	opened-hand	Open	15	0418
-66817.485	-53677.079999999994	-103143.015	-17998.335	0.0	0.0	0.0	0.0	0.0	0.0	0.0	0.0	0.0	0.0	0.0	0.0	0.0	0.0	146.0	0.0	0.031555095	-0.11285371500000001	1.019345535	3.8760399999999997	-0.65618	-1.6175599999999999	3211020.0	1776544811.936291	0.0	1.0	-1.0	-1.0	-1.0	-1.0	-1.0	-1.0	-1.0	-1.0	0.0	marker	opened-hand	Open	15	0418
-66658.095	-53659.89	-102970.62	-17867.88	0.0	0.0	0.0	0.0	0.0	0.0	0.0	0.0	0.0	0.0	0.0	0.0	0.0	0.0	146.0	0.0	0.031555095	-0.11285371500000001	1.019345535	3.8760399999999997	-0.65618	-1.6175599999999999	3211021.0	1776544811.940252	0.0	1.0	-1.0	-1.0	-1.0	-1.0	-1.0	-1.0	-1.0	-1.0	0.0	marker	opened-hand	Open	15	0418
-66806.19	-53663.354999999996	-103005.62999999999	-17903.655	0.0	0.0	0.0	0.0	0.0	0.0	0.0	0.0	0.0	0.0	0.0	0.0	0.0	0.0	146.0	0.0	0.031555095	-0.11285371500000001	1.019345535	3.8760399999999997	-0.65618	-1.6175599999999999	3211022.0	1776544811.940268	0.0	1.0	-1.0	-1.0	-1.0	-1.0	-1.0	-1.0	-1.0	-1.0	0.0	marker	opened-hand	Open	15	0418
-66825.94499999999	-53662.905	-103010.175	-17895.195	0.0	0.0	0.0	0.0	0.0	0.0	0.0	0.0	0.0	0.0	0.0	0.0	0.0	0.0	146.0	0.0	0.031555095	-0.11285371500000001	1.019345535	3.8760399999999997	-0.65618	-1.6175599999999999	3211023.0	1776544811.944253	0.0	1.0	-1.0	-1.0	-1.0	-1.0	-1.0	-1.0	-1.0	-1.0	0.0	marker	opened-hand	Open	15	0418
-66789.63	-53661.15	-103034.745	-17898.344999999998	0.0	0.0	0.0	0.0	0.0	0.0	0.0	0.0	0.0	0.0	0.0	0.0	0.0	0.0	146.0	0.0	0.031555095	-0.11285371500000001	1.019345535	3.8760399999999997	-0.65618	-1.6175599999999999	3211024.0	1776544811.944269	0.0	1.0	-1.0	-1.0	-1.0	-1.0	-1.0	-1.0	-1.0	-1.0	0.0	marker	opened-hand	Open	15	0418
-66841.38	-53670.375	-103116.33	-17994.465	0.0	0.0	0.0	0.0	0.0	0.0	0.0	0.0	0.0	0.0	0.0	0.0	0.0	0.0	146.0	0.0	0.031555095	-0.11285371500000001	1.019345535	3.8760399999999997	-0.65618	-1.6175599999999999	3211025.0	1776544811.9484	0.0	1.0	-1.0	-1.0	-1.0	-1.0	-1.0	-1.0	-1.0	-1.0	0.0	marker	opened-hand	Open	15	0418
-66828.825	-53672.174999999996	-103090.05	-17984.745	0.0	0.0	0.0	0.0	0.0	0.0	0.0	0.0	0.0	0.0	0.0	0.0	0.0	0.0	146.0	0.0	0.031555095	-0.11285371500000001	1.019345535	3.8760399999999997	-0.65618	-1.6175599999999999	3211026.0	1776544811.948415	0.0	1.0	-1.0	-1.0	-1.0	-1.0	-1.0	-1.0	-1.0	-1.0	0.0	marker	opened-hand	Open	15	0418
-66853.665	-53675.055	-103057.01999999999	-17957.88	0.0	0.0	0.0	0.0	0.0	0.0	0.0	0.0	0.0	0.0	0.0	0.0	0.0	0.0	146.0	0.0	0.034850985	-0.105285375	1.018491045	2.85362	-1.12924	-0.5341	3211027.0	1776544811.952416	0.0	1.0	-1.0	-1.0	-1.0	-1.0	-1.0	-1.0	-1.0	-1.0	0.0	marker	opened-hand	Open	15	0418
-66868.02	-53673.795	-103005.0	-17916.614999999998	0.0	0.0	0.0	0.0	0.0	0.0	0.0	0.0	0.0	0.0	0.0	0.0	0.0	0.0	146.0	0.0	0.034850985	-0.105285375	1.018491045	2.85362	-1.12924	-0.5341	3211028.0	1776544811.952431	0.0	1.0	-1.0	-1.0	-1.0	-1.0	-1.0	-1.0	-1.0	-1.0	0.0	marker	opened-hand	Open	15	0418
-66816.94499999999	-53668.89	-102998.34	-17910.0	0.0	0.0	0.0	0.0	0.0	0.0	0.0	0.0	0.0	0.0	0.0	0.0	0.0	0.0	146.0	0.0	0.034850985	-0.105285375	1.018491045	2.85362	-1.12924	-0.5341	3211029.0	1776544811.95872	0.0	1.0	-1.0	-1.0	-1.0	-1.0	-1.0	-1.0	-1.0	-1.0	0.0	marker	opened-hand	Open	15	0418
-66726.81	-53654.265	-102908.745	-17818.605	0.0	0.0	0.0	0.0	0.0	0.0	0.0	0.0	0.0	0.0	0.0	0.0	0.0	0.0	146.0	0.0	0.034850985	-0.105285375	1.018491045	2.85362	-1.12924	-0.5341	3211030.0	1776544811.958735	0.0	1.0	-1.0	-1.0	-1.0	-1.0	-1.0	-1.0	-1.0	-1.0	0.0	marker	opened-hand	Open	15	0418
-66516.56999999999	-53637.615	-102660.84	-17595.18	0.0	0.0	0.0	0.0	0.0	0.0	0.0	0.0	0.0	0.0	0.0	0.0	0.0	0.0	146.0	0.0	0.034850985	-0.105285375	1.018491045	2.85362	-1.12924	-0.5341	3211031.0	1776544811.961745	0.0	1.0	-1.0	-1.0	-1.0	-1.0	-1.0	-1.0	-1.0	-1.0	0.0	marker	opened-hand	Open	15	0418
-66595.59	-53649.54	-102764.43	-17653.274999999998	0.0	0.0	0.0	0.0	0.0	0.0	0.0	0.0	0.0	0.0	0.0	0.0	0.0	0.0	146.0	0.0	0.034850985	-0.105285375	1.018491045	2.85362	-1.12924	-0.5341	3211032.0	1776544811.961769	0.0	1.0	-1.0	-1.0	-1.0	-1.0	-1.0	-1.0	-1.0	-1.0	0.0	marker	opened-hand	Open	15	0418
-66609.54	-53654.085	-102747.19499999999	-17612.91	0.0	0.0	0.0	0.0	0.0	0.0	0.0	0.0	0.0	0.0	0.0	0.0	0.0	0.0	146.0	0.0	0.034850985	-0.105285375	1.018491045	2.85362	-1.12924	-0.5341	3211033.0	1776544811.964807	0.0	1.0	-1.0	-1.0	-1.0	-1.0	-1.0	-1.0	-1.0	-1.0	0.0	marker	opened-hand	Open	15	0418
-66814.69499999999	-53663.895	-102960.09	-17807.309999999998	0.0	0.0	0.0	0.0	0.0	0.0	0.0	0.0	0.0	0.0	0.0	0.0	0.0	0.0	146.0	0.0	0.034850985	-0.105285375	1.018491045	2.85362	-1.12924	-0.5341	3211034.0	1776544811.964823	0.0	1.0	-1.0	-1.0	-1.0	-1.0	-1.0	-1.0	-1.0	-1.0	0.0	marker	opened-hand	Open	15	0418
-67280.4	-53699.715	-103447.34999999999	-18373.77	0.0	0.0	0.0	0.0	0.0	0.0	0.0	0.0	0.0	0.0	0.0	0.0	0.0	0.0	146.0	0.0	0.034850985	-0.105285375	1.018491045	2.85362	-1.12924	-0.5341	3211035.0	1776544811.968451	0.0	1.0	-1.0	-1.0	-1.0	-1.0	-1.0	-1.0	-1.0	-1.0	0.0	marker	opened-hand	Open	15	0418
-67085.37	-53693.64	-103283.28	-18237.105	0.0	0.0	0.0	0.0	0.0	0.0	0.0	0.0	0.0	0.0	0.0	0.0	0.0	0.0	146.0	0.0	0.034850985	-0.105285375	1.018491045	2.85362	-1.12924	-0.5341	3211036.0	1776544811.968456	0.0	1.0	-1.0	-1.0	-1.0	-1.0	-1.0	-1.0	-1.0	-1.0	0.0	marker	opened-hand	Open	15	0418
-66868.73999999999	-53682.03	-103191.3	-18079.739999999998	0.0	0.0	0.0	0.0	0.0	0.0	0.0	0.0	0.0	0.0	0.0	0.0	0.0	0.0	146.0	0.0	0.032043375	-0.102966045	1.020688305	2.9604399999999997	-1.95328	-0.24416	3211037.0	1776544811.972392	0.0	1.0	-1.0	-1.0	-1.0	-1.0	-1.0	-1.0	-1.0	-1.0	0.0	marker	opened-hand	Open	15	0418
-66902.48999999999	-53673.93	-103137.48	-18048.42	0.0	0.0	0.0	0.0	0.0	0.0	0.0	0.0	0.0	0.0	0.0	0.0	0.0	0.0	146.0	0.0	0.032043375	-0.102966045	1.020688305	2.9604399999999997	-1.95328	-0.24416	3211038.0	1776544811.972407	0.0	1.0	-1.0	-1.0	-1.0	-1.0	-1.0	-1.0	-1.0	-1.0	0.0	marker	opened-hand	Open	15	0418
-66821.715	-53662.229999999996	-103012.47	-17953.739999999998	0.0	0.0	0.0	0.0	0.0	0.0	0.0	0.0	0.0	0.0	0.0	0.0	0.0	0.0	146.0	0.0	0.032043375	-0.102966045	1.020688305	2.9604399999999997	-1.95328	-0.24416	3211039.0	1776544811.977066	0.0	1.0	-1.0	-1.0	-1.0	-1.0	-1.0	-1.0	-1.0	-1.0	0.0	marker	opened-hand	Open	15	0418
-66801.015	-53667.134999999995	-103007.745	-17856.945	0.0	0.0	0.0	0.0	0.0	0.0	0.0	0.0	0.0	0.0	0.0	0.0	0.0	0.0	146.0	0.0	0.032043375	-0.102966045	1.020688305	2.9604399999999997	-1.95328	-0.24416	3211040.0	1776544811.977081	0.0	1.0	-1.0	-1.0	-1.0	-1.0	-1.0	-1.0	-1.0	-1.0	0.0	marker	opened-hand	Open	15	0418
-66845.565	-53688.689999999995	-103105.17	-17928.09	0.0	0.0	0.0	0.0	0.0	0.0	0.0	0.0	0.0	0.0	0.0	0.0	0.0	0.0	146.0	0.0	0.032043375	-0.102966045	1.020688305	2.9604399999999997	-1.95328	-0.24416	3211041.0	1776544811.980391	0.0	1.0	-1.0	-1.0	-1.0	-1.0	-1.0	-1.0	-1.0	-1.0	0.0	marker	opened-hand	Open	15	0418
-66857.76	-53701.064999999995	-103151.51999999999	-18015.614999999998	0.0	0.0	0.0	0.0	0.0	0.0	0.0	0.0	0.0	0.0	0.0	0.0	0.0	0.0	146.0	0.0	0.032043375	-0.102966045	1.020688305	2.9604399999999997	-1.95328	-0.24416	3211042.0	1776544811.980406	0.0	1.0	-1.0	-1.0	-1.0	-1.0	-1.0	-1.0	-1.0	-1.0	0.0	marker	opened-hand	Open	15	0418
-66847.68	-53702.055	-103104.26999999999	-18011.34	0.0	0.0	0.0	0.0	0.0	0.0	0.0	0.0	0.0	0.0	0.0	0.0	0.0	0.0	146.0	0.0	0.032043375	-0.102966045	1.020688305	2.9604399999999997	-1.95328	-0.24416	3211043.0	1776544811.984512	0.0	1.0	-1.0	-1.0	-1.0	-1.0	-1.0	-1.0	-1.0	-1.0	0.0	marker	opened-hand	Open	15	0418
-66762.0	-53681.939999999995	-102972.555	-17892.63	0.0	0.0	0.0	0.0	0.0	0.0	0.0	0.0	0.0	0.0	0.0	0.0	0.0	0.0	146.0	0.0	0.032043375	-0.102966045	1.020688305	2.9604399999999997	-1.95328	-0.24416	3211044.0	1776544811.984527	0.0	1.0	-1.0	-1.0	-1.0	-1.0	-1.0	-1.0	-1.0	-1.0	0.0	marker	opened-hand	Open	15	0418
-66800.83499999999	-53676.63	-103029.885	-17893.485	0.0	0.0	0.0	0.0	0.0	0.0	0.0	0.0	0.0	0.0	0.0	0.0	0.0	0.0	146.0	0.0	0.032043375	-0.102966045	1.020688305	2.9604399999999997	-1.95328	-0.24416	3211045.0	1776544811.993431	0.0	1.0	-1.0	-1.0	-1.0	-1.0	-1.0	-1.0	-1.0	-1.0	0.0	marker	opened-hand	Open	15	0418
-66799.44	-53677.259999999995	-103080.87	-17930.25	0.0	0.0	0.0	0.0	0.0	0.0	0.0	0.0	0.0	0.0	0.0	0.0	0.0	0.0	146.0	0.0	0.032043375	-0.102966045	1.020688305	2.9604399999999997	-1.95328	-0.24416	3211046.0	1776544811.993446	0.0	1.0	-1.0	-1.0	-1.0	-1.0	-1.0	-1.0	-1.0	-1.0	0.0	marker	opened-hand	Open	15	0418
-66825.135	-53667.63	-103038.075	-17902.125	0.0	0.0	0.0	0.0	0.0	0.0	0.0	0.0	0.0	0.0	0.0	0.0	0.0	0.0	146.0	0.0	0.037170315	-0.10351536	1.0168431	2.7010199999999998	-1.8312	-0.18312	3211047.0	1776544811.993465	0.0	1.0	-1.0	-1.0	-1.0	-1.0	-1.0	-1.0	-1.0	-1.0	0.0	marker	opened-hand	Open	15	0418
-66856.59	-53665.064999999995	-103039.01999999999	-17930.925	0.0	0.0	0.0	0.0	0.0	0.0	0.0	0.0	0.0	0.0	0.0	0.0	0.0	0.0	146.0	0.0	0.037170315	-0.10351536	1.0168431	2.7010199999999998	-1.8312	-0.18312	3211048.0	1776544811.993473	0.0	1.0	-1.0	-1.0	-1.0	-1.0	-1.0	-1.0	-1.0	-1.0	0.0	marker	opened-hand	Open	15	0418
-66739.5	-53662.77	-102851.01	-17760.78	0.0	0.0	0.0	0.0	0.0	0.0	0.0	0.0	0.0	0.0	0.0	0.0	0.0	0.0	146.0	0.0	0.037170315	-0.10351536	1.0168431	2.7010199999999998	-1.8312	-0.18312	3211049.0	1776544811.998963	0.0	1.0	-1.0	-1.0	-1.0	-1.0	-1.0	-1.0	-1.0	-1.0	0.0	marker	opened-hand	Open	15	0418
-66877.92	-53673.479999999996	-103008.87	-17904.059999999998	0.0	0.0	0.0	0.0	0.0	0.0	0.0	0.0	0.0	0.0	0.0	0.0	0.0	0.0	146.0	0.0	0.037170315	-0.10351536	1.0168431	2.7010199999999998	-1.8312	-0.18312	3211050.0	1776544811.998978	0.0	1.0	-1.0	-1.0	-1.0	-1.0	-1.0	-1.0	-1.0	-1.0	0.0	marker	opened-hand	Open	15	0418
-66906.315	-53682.39	-103187.43	-18073.44	0.0	0.0	0.0	0.0	0.0	0.0	0.0	0.0	0.0	0.0	0.0	0.0	0.0	0.0	146.0	0.0	0.037170315	-0.10351536	1.0168431	2.7010199999999998	-1.8312	-0.18312	3211051.0	1776544812.007537	0.0	1.0	-1.0	-1.0	-1.0	-1.0	-1.0	-1.0	-1.0	-1.0	0.0	marker	opened-hand	Open	15	0418
-66824.055	-53667.134999999995	-103071.64499999999	-17956.71	0.0	0.0	0.0	0.0	0.0	0.0	0.0	0.0	0.0	0.0	0.0	0.0	0.0	0.0	146.0	0.0	0.037170315	-0.10351536	1.0168431	2.7010199999999998	-1.8312	-0.18312	3211052.0	1776544812.007553	0.0	1.0	-1.0	-1.0	-1.0	-1.0	-1.0	-1.0	-1.0	-1.0	0.0	marker	opened-hand	Open	15	0418
-66775.23	-53656.56	-102961.845	-17871.795	0.0	0.0	0.0	0.0	0.0	0.0	0.0	0.0	0.0	0.0	0.0	0.0	0.0	0.0	146.0	0.0	0.037170315	-0.10351536	1.0168431	2.7010199999999998	-1.8312	-0.18312	3211053.0	1776544812.007572	0.0	1.0	-1.0	-1.0	-1.0	-1.0	-1.0	-1.0	-1.0	-1.0	0.0	marker	opened-hand	Open	15	0418
-66864.015	-53658.18	-102997.03499999999	-17886.51	0.0	0.0	0.0	0.0	0.0	0.0	0.0	0.0	0.0	0.0	0.0	0.0	0.0	0.0	146.0	0.0	0.037170315	-0.10351536	1.0168431	2.7010199999999998	-1.8312	-0.18312	3211054.0	1776544812.007587	0.0	1.0	-1.0	-1.0	-1.0	-1.0	-1.0	-1.0	-1.0	-1.0	0.0	marker	opened-hand	Open	15	0418
-66844.44	-53658.45	-103098.375	-17960.67	0.0	0.0	0.0	0.0	0.0	0.0	0.0	0.0	0.0	0.0	0.0	0.0	0.0	0.0	146.0	0.0	0.037170315	-0.10351536	1.0168431	2.7010199999999998	-1.8312	-0.18312	3211055.0	1776544812.008568	0.0	1.0	-1.0	-1.0	-1.0	-1.0	-1.0	-1.0	-1.0	-1.0	0.0	marker	opened-hand	Open	15	0418
-66681.36	-53642.295	-102998.11499999999	-17863.965	0.0	0.0	0.0	0.0	0.0	0.0	0.0	0.0	0.0	0.0	0.0	0.0	0.0	0.0	146.0	0.0	0.037170315	-0.10351536	1.0168431	2.7010199999999998	-1.8312	-0.18312	3211056.0	1776544812.008583	0.0	1.0	-1.0	-1.0	-1.0	-1.0	-1.0	-1.0	-1.0	-1.0	0.0	marker	opened-hand	Open	15	0418
-66816.94499999999	-53651.07	-103035.64499999999	-17911.215	0.0	0.0	0.0	0.0	0.0	0.0	0.0	0.0	0.0	0.0	0.0	0.0	0.0	0.0	146.0	0.0	0.041320695	-0.103698465	1.01586654	2.7010199999999998	-1.8769799999999999	-0.01526	3211057.0	1776544812.012563	0.0	1.0	-1.0	-1.0	-1.0	-1.0	-1.0	-1.0	-1.0	-1.0	0.0	marker	opened-hand	Open	15	0418
-66819.69	-53669.07	-103061.655	-17964.18	0.0	0.0	0.0	0.0	0.0	0.0	0.0	0.0	0.0	0.0	0.0	0.0	0.0	0.0	146.0	0.0	0.041320695	-0.103698465	1.01586654	2.7010199999999998	-1.8769799999999999	-0.01526	3211058.0	1776544812.012579	0.0	1.0	-1.0	-1.0	-1.0	-1.0	-1.0	-1.0	-1.0	-1.0	0.0	marker	opened-hand	Open	15	0418
-66661.02	-53675.055	-102927.87	-17823.69	0.0	0.0	0.0	0.0	0.0	0.0	0.0	0.0	0.0	0.0	0.0	0.0	0.0	0.0	146.0	0.0	0.041320695	-0.103698465	1.01586654	2.7010199999999998	-1.8769799999999999	-0.01526	3211059.0	1776544812.016497	0.0	1.0	-1.0	-1.0	-1.0	-1.0	-1.0	-1.0	-1.0	-1.0	0.0	marker	opened-hand	Open	15	0418
-66757.995	-53676.765	-102919.995	-17829.315	0.0	0.0	0.0	0.0	0.0	0.0	0.0	0.0	0.0	0.0	0.0	0.0	0.0	0.0	146.0	0.0	0.041320695	-0.103698465	1.01586654	2.7010199999999998	-1.8769799999999999	-0.01526	3211060.0	1776544812.016504	0.0	1.0	-1.0	-1.0	-1.0	-1.0	-1.0	-1.0	-1.0	-1.0	0.0	marker	opened-hand	Open	15	0418
-66896.325	-53681.534999999996	-102981.375	-17917.92	0.0	0.0	0.0	0.0	0.0	0.0	0.0	0.0	0.0	0.0	0.0	0.0	0.0	0.0	146.0	0.0	0.041320695	-0.103698465	1.01586654	2.7010199999999998	-1.8769799999999999	-0.01526	3211061.0	1776544812.020646	0.0	1.0	-1.0	-1.0	-1.0	-1.0	-1.0	-1.0	-1.0	-1.0	0.0	marker	opened-hand	Open	15	0418
-66787.065	-53677.845	-102928.36499999999	-17870.265	0.0	0.0	0.0	0.0	0.0	0.0	0.0	0.0	0.0	0.0	0.0	0.0	0.0	0.0	146.0	0.0	0.041320695	-0.103698465	1.01586654	2.7010199999999998	-1.8769799999999999	-0.01526	3211062.0	1776544812.020653	0.0	1.0	-1.0	-1.0	-1.0	-1.0	-1.0	-1.0	-1.0	-1.0	0.0	marker	opened-hand	Open	15	0418
-66858.39	-53673.795	-103129.37999999999	-18006.57	0.0	0.0	0.0	0.0	0.0	0.0	0.0	0.0	0.0	0.0	0.0	0.0	0.0	0.0	146.0	0.0	0.041320695	-0.103698465	1.01586654	2.7010199999999998	-1.8769799999999999	-0.01526	3211063.0	1776544812.024529	0.0	1.0	-1.0	-1.0	-1.0	-1.0	-1.0	-1.0	-1.0	-1.0	0.0	marker	opened-hand	Open	15	0418
-66785.84999999999	-53666.009999999995	-103078.62	-18010.035	0.0	0.0	0.0	0.0	0.0	0.0	0.0	0.0	0.0	0.0	0.0	0.0	0.0	0.0	146.0	0.0	0.041320695	-0.103698465	1.01586654	2.7010199999999998	-1.8769799999999999	-0.01526	3211064.0	1776544812.024535	0.0	1.0	-1.0	-1.0	-1.0	-1.0	-1.0	-1.0	-1.0	-1.0	0.0	marker	opened-hand	Open	15	0418
-66828.015	-53671.185	-103057.01999999999	-17919.765	0.0	0.0	0.0	0.0	0.0	0.0	0.0	0.0	0.0	0.0	0.0	0.0	0.0	0.0	146.0	0.0	0.041320695	-0.103698465	1.01586654	2.7010199999999998	-1.8769799999999999	-0.01526	3211065.0	1776544812.028617	0.0	1.0	-1.0	-1.0	-1.0	-1.0	-1.0	-1.0	-1.0	-1.0	0.0	marker	opened-hand	Open	15	0418
-66916.035	-53678.159999999996	-103082.04	-17920.395	0.0	0.0	0.0	0.0	0.0	0.0	0.0	0.0	0.0	0.0	0.0	0.0	0.0	0.0	146.0	0.0	0.041320695	-0.103698465	1.01586654	2.7010199999999998	-1.8769799999999999	-0.01526	3211066.0	1776544812.028629	0.0	1.0	-1.0	-1.0	-1.0	-1.0	-1.0	-1.0	-1.0	-1.0	0.0	marker	opened-hand	Open	15	0418
-66800.565	-53682.345	-102946.5	-17883.855	0.0	0.0	0.0	0.0	0.0	0.0	0.0	0.0	0.0	0.0	0.0	0.0	0.0	0.0	146.0	0.0	0.04284657	-0.10485813000000001	1.0119603	4.2728	-1.526	-0.01526	3211067.0	1776544812.032487	0.0	1.0	-1.0	-1.0	-1.0	-1.0	-1.0	-1.0	-1.0	-1.0	0.0	marker	opened-hand	Open	15	0418
-66844.755	-53693.009999999995	-103057.69499999999	-17990.145	0.0	0.0	0.0	0.0	0.0	0.0	0.0	0.0	0.0	0.0	0.0	0.0	0.0	0.0	146.0	0.0	0.04284657	-0.10485813000000001	1.0119603	4.2728	-1.526	-0.01526	3211068.0	1776544812.032494	0.0	1.0	-1.0	-1.0	-1.0	-1.0	-1.0	-1.0	-1.0	-1.0	0.0	marker	opened-hand	Open	15	0418
-66950.415	-53698.994999999995	-103171.455	-18051.165	0.0	0.0	0.0	0.0	0.0	0.0	0.0	0.0	0.0	0.0	0.0	0.0	0.0	0.0	146.0	0.0	0.04284657	-0.10485813000000001	1.0119603	4.2728	-1.526	-0.01526	3211069.0	1776544812.036591	0.0	1.0	-1.0	-1.0	-1.0	-1.0	-1.0	-1.0	-1.0	-1.0	0.0	marker	opened-hand	Open	15	0418
-66933.54	-53689.634999999995	-103099.275	-17972.145	0.0	0.0	0.0	0.0	0.0	0.0	0.0	0.0	0.0	0.0	0.0	0.0	0.0	0.0	146.0	0.0	0.04284657	-0.10485813000000001	1.0119603	4.2728	-1.526	-0.01526	3211070.0	1776544812.036607	0.0	1.0	-1.0	-1.0	-1.0	-1.0	-1.0	-1.0	-1.0	-1.0	0.0	marker	opened-hand	Open	15	0418
-66864.69	-53685.494999999995	-103134.64499999999	-18029.295	0.0	0.0	0.0	0.0	0.0	0.0	0.0	0.0	0.0	0.0	0.0	0.0	0.0	0.0	146.0	0.0	0.04284657	-0.10485813000000001	1.0119603	4.2728	-1.526	-0.01526	3211071.0	1776544812.040605	0.0	1.0	-1.0	-1.0	-1.0	-1.0	-1.0	-1.0	-1.0	-1.0	0.0	marker	opened-hand	Open	15	0418
-66710.745	-53665.604999999996	-103030.01999999999	-17918.505	0.0	0.0	0.0	0.0	0.0	0.0	0.0	0.0	0.0	0.0	0.0	0.0	0.0	0.0	146.0	0.0	0.04284657	-0.10485813000000001	1.0119603	4.2728	-1.526	-0.01526	3211072.0	1776544812.04061	0.0	1.0	-1.0	-1.0	-1.0	-1.0	-1.0	-1.0	-1.0	-1.0	0.0	marker	opened-hand	Open	15	0418
-66715.56	-53658.9	-102996.26999999999	-17855.64	0.0	0.0	0.0	0.0	0.0	0.0	0.0	0.0	0.0	0.0	0.0	0.0	0.0	0.0	146.0	0.0	0.04284657	-0.10485813000000001	1.0119603	4.2728	-1.526	-0.01526	3211073.0	1776544812.044677	0.0	1.0	-1.0	-1.0	-1.0	-1.0	-1.0	-1.0	-1.0	-1.0	0.0	marker	opened-hand	Open	15	0418
-66877.73999999999	-53668.575	-103118.58	-17972.37	0.0	0.0	0.0	0.0	0.0	0.0	0.0	0.0	0.0	0.0	0.0	0.0	0.0	0.0	146.0	0.0	0.04284657	-0.10485813000000001	1.0119603	4.2728	-1.526	-0.01526	3211074.0	1776544812.044682	0.0	1.0	-1.0	-1.0	-1.0	-1.0	-1.0	-1.0	-1.0	-1.0	0.0	marker	opened-hand	Open	15	0418
-66749.805	-53659.079999999994	-102977.64	-17873.28	0.0	0.0	0.0	0.0	0.0	0.0	0.0	0.0	0.0	0.0	0.0	0.0	0.0	0.0	146.0	0.0	0.04284657	-0.10485813000000001	1.0119603	4.2728	-1.526	-0.01526	3211075.0	1776544812.048587	0.0	1.0	-1.0	-1.0	-1.0	-1.0	-1.0	-1.0	-1.0	-1.0	0.0	marker	opened-hand	Open	15	0418
-66704.895	-53649.72	-102886.37999999999	-17781.93	0.0	0.0	0.0	0.0	0.0	0.0	0.0	0.0	0.0	0.0	0.0	0.0	0.0	0.0	146.0	0.0	0.04284657	-0.10485813000000001	1.0119603	4.2728	-1.526	-0.01526	3211076.0	1776544812.048596	0.0	1.0	-1.0	-1.0	-1.0	-1.0	-1.0	-1.0	-1.0	-1.0	0.0	marker	opened-hand	Open	15	0418
-66634.92	-53646.345	-102762.54	-17671.905	0.0	0.0	0.0	0.0	0.0	0.0	0.0	0.0	0.0	0.0	0.0	0.0	0.0	0.0	146.0	0.0	0.04968249	-0.113219925	1.009946145	4.15072	-1.58704	-0.39676	3211077.0	1776544812.052583	0.0	1.0	-1.0	-1.0	-1.0	-1.0	-1.0	-1.0	-1.0	-1.0	0.0	marker	opened-hand	Open	15	0418
-66682.305	-53658.765	-102844.665	-17732.565	0.0	0.0	0.0	0.0	0.0	0.0	0.0	0.0	0.0	0.0	0.0	0.0	0.0	0.0	146.0	0.0	0.04968249	-0.113219925	1.009946145	4.15072	-1.58704	-0.39676	3211078.0	1776544812.052588	0.0	1.0	-1.0	-1.0	-1.0	-1.0	-1.0	-1.0	-1.0	-1.0	0.0	marker	opened-hand	Open	15	0418
-66912.84	-53679.465	-103177.215	-18082.305	0.0	0.0	0.0	0.0	0.0	0.0	0.0	0.0	0.0	0.0	0.0	0.0	0.0	0.0	146.0	0.0	0.04968249	-0.113219925	1.009946145	4.15072	-1.58704	-0.39676	3211079.0	1776544812.058276	0.0	1.0	-1.0	-1.0	-1.0	-1.0	-1.0	-1.0	-1.0	-1.0	0.0	marker	opened-hand	Open	15	0418
-66897.54	-53671.905	-103162.905	-18083.925	0.0	0.0	0.0	0.0	0.0	0.0	0.0	0.0	0.0	0.0	0.0	0.0	0.0	0.0	146.0	0.0	0.04968249	-0.113219925	1.009946145	4.15072	-1.58704	-0.39676	3211080.0	1776544812.058281	0.0	1.0	-1.0	-1.0	-1.0	-1.0	-1.0	-1.0	-1.0	-1.0	0.0	marker	opened-hand	Open	15	0418
-66688.65	-53655.119999999995	-102985.515	-17854.965	0.0	0.0	0.0	0.0	0.0	0.0	0.0	0.0	0.0	0.0	0.0	0.0	0.0	0.0	146.0	0.0	0.04968249	-0.113219925	1.009946145	4.15072	-1.58704	-0.39676	3211081.0	1776544812.064172	0.0	1.0	-1.0	-1.0	-1.0	-1.0	-1.0	-1.0	-1.0	-1.0	0.0	marker	opened-hand	Open	15	0418
-66752.81999999999	-53670.195	-102975.12	-17865.54	0.0	0.0	0.0	0.0	0.0	0.0	0.0	0.0	0.0	0.0	0.0	0.0	0.0	0.0	146.0	0.0	0.04968249	-0.113219925	1.009946145	4.15072	-1.58704	-0.39676	3211082.0	1776544812.064176	0.0	1.0	-1.0	-1.0	-1.0	-1.0	-1.0	-1.0	-1.0	-1.0	0.0	marker	opened-hand	Open	15	0418
-66898.89	-53716.095	-103066.73999999999	-17941.14	0.0	0.0	0.0	0.0	0.0	0.0	0.0	0.0	0.0	0.0	0.0	0.0	0.0	0.0	146.0	0.0	0.04968249	-0.113219925	1.009946145	4.15072	-1.58704	-0.39676	3211083.0	1776544812.067201	0.0	1.0	-1.0	-1.0	-1.0	-1.0	-1.0	-1.0	-1.0	-1.0	0.0	marker	opened-hand	Open	15	0418
-66966.255	-53732.88	-103099.5	-17971.335	0.0	0.0	0.0	0.0	0.0	0.0	0.0	0.0	0.0	0.0	0.0	0.0	0.0	0.0	146.0	0.0	0.04968249	-0.113219925	1.009946145	4.15072	-1.58704	-0.39676	3211084.0	1776544812.067205	0.0	1.0	-1.0	-1.0	-1.0	-1.0	-1.0	-1.0	-1.0	-1.0	0.0	marker	opened-hand	Open	15	0418
-66887.595	-53723.79	-103062.64499999999	-17973.765	0.0	0.0	0.0	0.0	0.0	0.0	0.0	0.0	0.0	0.0	0.0	0.0	0.0	0.0	146.0	0.0	0.04968249	-0.113219925	1.009946145	4.15072	-1.58704	-0.39676	3211085.0	1776544812.070139	0.0	1.0	-1.0	-1.0	-1.0	-1.0	-1.0	-1.0	-1.0	-1.0	0.0	marker	opened-hand	Open	15	0418
-66636.765	-53703.134999999995	-102930.56999999999	-17851.68	0.0	0.0	0.0	0.0	0.0	0.0	0.0	0.0	0.0	0.0	0.0	0.0	0.0	0.0	146.0	0.0	0.04968249	-0.113219925	1.009946145	4.15072	-1.58704	-0.39676	3211086.0	1776544812.070143	0.0	1.0	-1.0	-1.0	-1.0	-1.0	-1.0	-1.0	-1.0	-1.0	0.0	marker	opened-hand	Open	15	0418
-66679.83	-53699.085	-103071.825	-17986.68	0.0	0.0	0.0	0.0	0.0	0.0	0.0	0.0	0.0	0.0	0.0	0.0	0.0	0.0	146.0	0.0	0.045593145	-0.12499968	1.00536852	3.00622	-0.763	-2.5484199999999997	3211087.0	1776544812.072718	0.0	1.0	-1.0	-1.0	-1.0	-1.0	-1.0	-1.0	-1.0	-1.0	0.0	marker	opened-hand	Open	15	0418
-66889.98	-53700.84	-103159.08	-18004.184999999998	0.0	0.0	0.0	0.0	0.0	0.0	0.0	0.0	0.0	0.0	0.0	0.0	0.0	0.0	146.0	0.0	0.045593145	-0.12499968	1.00536852	3.00622	-0.763	-2.5484199999999997	3211088.0	1776544812.072721	0.0	1.0	-1.0	-1.0	-1.0	-1.0	-1.0	-1.0	-1.0	-1.0	0.0	marker	opened-hand	Open	15	0418
-66762.0	-53689.95	-102988.62	-17839.71	0.0	0.0	0.0	0.0	0.0	0.0	0.0	0.0	0.0	0.0	0.0	0.0	0.0	0.0	146.0	0.0	0.045593145	-0.12499968	1.00536852	3.00622	-0.763	-2.5484199999999997	3211089.0	1776544812.077461	0.0	1.0	-1.0	-1.0	-1.0	-1.0	-1.0	-1.0	-1.0	-1.0	0.0	marker	opened-hand	Open	15	0418
-66843.09	-53684.909999999996	-103051.89	-17913.69	0.0	0.0	0.0	0.0	0.0	0.0	0.0	0.0	0.0	0.0	0.0	0.0	0.0	0.0	146.0	0.0	0.045593145	-0.12499968	1.00536852	3.00622	-0.763	-2.5484199999999997	3211090.0	1776544812.077465	0.0	1.0	-1.0	-1.0	-1.0	-1.0	-1.0	-1.0	-1.0	-1.0	0.0	marker	opened-hand	Open	15	0418
-66942.63	-53696.07	-103230.045	-18099.18	0.0	0.0	0.0	0.0	0.0	0.0	0.0	0.0	0.0	0.0	0.0	0.0	0.0	0.0	146.0	0.0	0.045593145	-0.12499968	1.00536852	3.00622	-0.763	-2.5484199999999997	3211091.0	1776544812.080757	0.0	1.0	-1.0	-1.0	-1.0	-1.0	-1.0	-1.0	-1.0	-1.0	0.0	marker	opened-hand	Open	15	0418
-66944.88	-53699.4	-103162.815	-18042.795	0.0	0.0	0.0	0.0	0.0	0.0	0.0	0.0	0.0	0.0	0.0	0.0	0.0	0.0	146.0	0.0	0.045593145	-0.12499968	1.00536852	3.00622	-0.763	-2.5484199999999997	3211092.0	1776544812.080761	0.0	1.0	-1.0	-1.0	-1.0	-1.0	-1.0	-1.0	-1.0	-1.0	0.0	marker	opened-hand	Open	15	0418
-66951.98999999999	-53689.454999999994	-103024.305	-17925.614999999998	0.0	0.0	0.0	0.0	0.0	0.0	0.0	0.0	0.0	0.0	0.0	0.0	0.0	0.0	146.0	0.0	0.045593145	-0.12499968	1.00536852	3.00622	-0.763	-2.5484199999999997	3211093.0	1776544812.084746	0.0	1.0	-1.0	-1.0	-1.0	-1.0	-1.0	-1.0	-1.0	-1.0	0.0	marker	opened-hand	Open	15	0418
-66857.13	-53668.755	-103072.95	-18002.655	0.0	0.0	0.0	0.0	0.0	0.0	0.0	0.0	0.0	0.0	0.0	0.0	0.0	0.0	146.0	0.0	0.045593145	-0.12499968	1.00536852	3.00622	-0.763	-2.5484199999999997	3211094.0	1776544812.08475	0.0	1.0	-1.0	-1.0	-1.0	-1.0	-1.0	-1.0	-1.0	-1.0	0.0	marker	opened-hand	Open	15	0418
-66805.245	-53661.015	-103049.595	-17960.219999999998	0.0	0.0	0.0	0.0	0.0	0.0	0.0	0.0	0.0	0.0	0.0	0.0	0.0	0.0	146.0	0.0	0.045593145	-0.12499968	1.00536852	3.00622	-0.763	-2.5484199999999997	3211095.0	1776544812.088718	0.0	1.0	-1.0	-1.0	-1.0	-1.0	-1.0	-1.0	-1.0	-1.0	0.0	marker	opened-hand	Open	15	0418
-66705.20999999999	-53636.534999999996	-102851.595	-17782.605	0.0	0.0	0.0	0.0	0.0	0.0	0.0	0.0	0.0	0.0	0.0	0.0	0.0	0.0	146.0	0.0	0.045593145	-0.12499968	1.00536852	3.00622	-0.763	-2.5484199999999997	3211096.0	1776544812.088722	0.0	1.0	-1.0	-1.0	-1.0	-1.0	-1.0	-1.0	-1.0	-1.0	0.0	marker	opened-hand	Open	15	0418
-66670.29	-53624.43	-102856.23	-17774.82	0.0	0.0	0.0	0.0	0.0	0.0	0.0	0.0	0.0	0.0	0.0	0.0	0.0	0.0	146.0	0.0	0.04589832	-0.127380045	1.00549059	2.8230999999999997	-0.62566	-3.92182	3211097.0	1776544812.097721	0.0	1.0	-1.0	-1.0	-1.0	-1.0	-1.0	-1.0	-1.0	-1.0	0.0	marker	opened-hand	Open	15	0418
-66782.06999999999	-53629.695	-102986.415	-17912.34	0.0	0.0	0.0	0.0	0.0	0.0	0.0	0.0	0.0	0.0	0.0	0.0	0.0	0.0	146.0	0.0	0.04589832	-0.127380045	1.00549059	2.8230999999999997	-0.62566	-3.92182	3211098.0	1776544812.097725	0.0	1.0	-1.0	-1.0	-1.0	-1.0	-1.0	-1.0	-1.0	-1.0	0.0	marker	opened-hand	Open	15	0418
-66858.345	-53633.655	-103003.29	-17947.305	0.0	0.0	0.0	0.0	0.0	0.0	0.0	0.0	0.0	0.0	0.0	0.0	0.0	0.0	146.0	0.0	0.04589832	-0.127380045	1.00549059	2.8230999999999997	-0.62566	-3.92182	3211099.0	1776544812.097729	0.0	1.0	-1.0	-1.0	-1.0	-1.0	-1.0	-1.0	-1.0	-1.0	0.0	marker	opened-hand	Open	15	0418
-66907.17	-53644.365	-103063.185	-17956.89	0.0	0.0	0.0	0.0	0.0	0.0	0.0	0.0	0.0	0.0	0.0	0.0	0.0	0.0	146.0	0.0	0.04589832	-0.127380045	1.00549059	2.8230999999999997	-0.62566	-3.92182	3211100.0	1776544812.097733	0.0	1.0	-1.0	-1.0	-1.0	-1.0	-1.0	-1.0	-1.0	-1.0	0.0	marker	opened-hand	Open	15	0418
-66915.45	-53651.97	-103026.19499999999	-17901.63	0.0	0.0	0.0	0.0	0.0	0.0	0.0	0.0	0.0	0.0	0.0	0.0	0.0	0.0	146.0	0.0	0.04589832	-0.127380045	1.00549059	2.8230999999999997	-0.62566	-3.92182	3211101.0	1776544812.102367	0.0	1.0	-1.0	-1.0	-1.0	-1.0	-1.0	-1.0	-1.0	-1.0	0.0	marker	opened-hand	Open	15	0418
-66941.955	-53658.0	-103186.89	-18012.105	0.0	0.0	0.0	0.0	0.0	0.0	0.0	0.0	0.0	0.0	0.0	0.0	0.0	0.0	146.0	0.0	0.04589832	-0.127380045	1.00549059	2.8230999999999997	-0.62566	-3.92182	3211102.0	1776544812.102371	0.0	1.0	-1.0	-1.0	-1.0	-1.0	-1.0	-1.0	-1.0	-1.0	0.0	marker	opened-hand	Open	15	0418
-66923.595	-53658.045	-103261.275	-18098.73	0.0	0.0	0.0	0.0	0.0	0.0	0.0	0.0	0.0	0.0	0.0	0.0	0.0	0.0	146.0	0.0	0.04589832	-0.127380045	1.00549059	2.8230999999999997	-0.62566	-3.92182	3211103.0	1776544812.104954	0.0	1.0	-1.0	-1.0	-1.0	-1.0	-1.0	-1.0	-1.0	-1.0	0.0	marker	opened-hand	Open	15	0418
-66987.72	-53643.195	-103216.995	-18057.375	0.0	0.0	0.0	0.0	0.0	0.0	0.0	0.0	0.0	0.0	0.0	0.0	0.0	0.0	146.0	0.0	0.04589832	-0.127380045	1.00549059	2.8230999999999997	-0.62566	-3.92182	3211104.0	1776544812.104969	0.0	1.0	-1.0	-1.0	-1.0	-1.0	-1.0	-1.0	-1.0	-1.0	0.0	marker	opened-hand	Open	15	0418
-66807.81	-53622.27	-103119.345	-17998.515	0.0	0.0	0.0	0.0	0.0	0.0	0.0	0.0	0.0	0.0	0.0	0.0	0.0	0.0	146.0	0.0	0.04589832	-0.127380045	1.00549059	2.8230999999999997	-0.62566	-3.92182	3211105.0	1776544812.108781	0.0	1.0	-1.0	-1.0	-1.0	-1.0	-1.0	-1.0	-1.0	-1.0	0.0	marker	opened-hand	Open	15	0418
-66706.515	-53611.65	-103024.575	-17917.02	0.0	0.0	0.0	0.0	0.0	0.0	0.0	0.0	0.0	0.0	0.0	0.0	0.0	0.0	146.0	0.0	0.04589832	-0.127380045	1.00549059	2.8230999999999997	-0.62566	-3.92182	3211106.0	1776544812.108784	0.0	1.0	-1.0	-1.0	-1.0	-1.0	-1.0	-1.0	-1.0	-1.0	0.0	marker	opened-hand	Open	15	0418
-66765.105	-53609.04	-102987.72	-17869.635	0.0	0.0	0.0	0.0	0.0	0.0	0.0	0.0	0.0	0.0	0.0	0.0	0.0	0.0	146.0	0.0	0.040099995	-0.11144991	1.00573473	4.24228	0.62566	-0.94612	3211107.0	1776544812.112873	0.0	1.0	-1.0	-1.0	-1.0	-1.0	-1.0	-1.0	-1.0	-1.0	0.0	marker	opened-hand	Open	15	0418
-66741.56999999999	-53619.615	-102949.73999999999	-17847.855	0.0	0.0	0.0	0.0	0.0	0.0	0.0	0.0	0.0	0.0	0.0	0.0	0.0	0.0	146.0	0.0	0.040099995	-0.11144991	1.00573473	4.24228	0.62566	-0.94612	3211108.0	1776544812.112876	0.0	1.0	-1.0	-1.0	-1.0	-1.0	-1.0	-1.0	-1.0	-1.0	0.0	marker	opened-hand	Open	15	0418
-66573.405	-53621.505	-102693.915	-17597.43	0.0	0.0	0.0	0.0	0.0	0.0	0.0	0.0	0.0	0.0	0.0	0.0	0.0	0.0	146.0	0.0	0.040099995	-0.11144991	1.00573473	4.24228	0.62566	-0.94612	3211109.0	1776544812.12011	0.0	1.0	-1.0	-1.0	-1.0	-1.0	-1.0	-1.0	-1.0	-1.0	0.0	marker	opened-hand	Open	15	0418
-66747.015	-53588.295	-102873.87	-17750.565	0.0	0.0	0.0	0.0	0.0	0.0	0.0	0.0	0.0	0.0	0.0	0.0	0.0	0.0	146.0	0.0	0.040099995	-0.11144991	1.00573473	4.24228	0.62566	-0.94612	3211110.0	1776544812.120114	0.0	1.0	-1.0	-1.0	-1.0	-1.0	-1.0	-1.0	-1.0	-1.0	0.0	marker	opened-hand	Open	15	0418
-67008.33	-53581.365	-103261.23	-18143.46	0.0	0.0	0.0	0.0	0.0	0.0	0.0	0.0	0.0	0.0	0.0	0.0	0.0	0.0	146.0	0.0	0.040099995	-0.11144991	1.00573473	4.24228	0.62566	-0.94612	3211111.0	1776544812.120865	0.0	1.0	-1.0	-1.0	-1.0	-1.0	-1.0	-1.0	-1.0	-1.0	0.0	marker	opened-hand	Open	15	0418
-67004.81999999999	-53576.865	-103252.095	-18151.515	0.0	0.0	0.0	0.0	0.0	0.0	0.0	0.0	0.0	0.0	0.0	0.0	0.0	0.0	146.0	0.0	0.040099995	-0.11144991	1.00573473	4.24228	0.62566	-0.94612	3211112.0	1776544812.120879	0.0	1.0	-1.0	-1.0	-1.0	-1.0	-1.0	-1.0	-1.0	-1.0	0.0	marker	opened-hand	Open	15	0418
-66891.19499999999	-53571.104999999996	-103161.64499999999	-18061.605	0.0	0.0	0.0	0.0	0.0	0.0	0.0	0.0	0.0	0.0	0.0	0.0	0.0	0.0	146.0	0.0	0.040099995	-0.11144991	1.00573473	4.24228	0.62566	-0.94612	3211113.0	1776544812.124985	0.0	1.0	-1.0	-1.0	-1.0	-1.0	-1.0	-1.0	-1.0	-1.0	0.0	marker	opened-hand	Open	15	0418
-66802.815	-53562.869999999995	-103098.105	-17995.094999999998	0.0	0.0	0.0	0.0	0.0	0.0	0.0	0.0	0.0	0.0	0.0	0.0	0.0	0.0	146.0	0.0	0.040099995	-0.11144991	1.00573473	4.24228	0.62566	-0.94612	3211114.0	1776544812.125	0.0	1.0	-1.0	-1.0	-1.0	-1.0	-1.0	-1.0	-1.0	-1.0	0.0	marker	opened-hand	Open	15	0418
-66805.245	-53563.005	-103092.97499999999	-17985.239999999998	0.0	0.0	0.0	0.0	0.0	0.0	0.0	0.0	0.0	0.0	0.0	0.0	0.0	0.0	146.0	0.0	0.040099995	-0.11144991	1.00573473	4.24228	0.62566	-0.94612	3211115.0	1776544812.129219	0.0	1.0	-1.0	-1.0	-1.0	-1.0	-1.0	-1.0	-1.0	-1.0	0.0	marker	opened-hand	Open	15	0418
-66846.33	-53572.68	-103096.485	-17984.88	0.0	0.0	0.0	0.0	0.0	0.0	0.0	0.0	0.0	0.0	0.0	0.0	0.0	0.0	146.0	0.0	0.040099995	-0.11144991	1.00573473	4.24228	0.62566	-0.94612	3211116.0	1776544812.129234	0.0	1.0	-1.0	-1.0	-1.0	-1.0	-1.0	-1.0	-1.0	-1.0	0.0	marker	opened-hand	Open	15	0418
-66908.745	-53585.415	-103084.73999999999	-17979.66	0.0	0.0	0.0	0.0	0.0	0.0	0.0	0.0	0.0	0.0	0.0	0.0	0.0	0.0	146.0	0.0	0.046935915	-0.10095189	1.005673695	3.8607799999999997	1.0682	-1.8006799999999998	3211117.0	1776544812.132994	0.0	1.0	-1.0	-1.0	-1.0	-1.0	-1.0	-1.0	-1.0	-1.0	0.0	marker	opened-hand	Open	15	0418
-66923.19	-53586.945	-103069.305	-17967.735	0.0	0.0	0.0	0.0	0.0	0.0	0.0	0.0	0.0	0.0	0.0	0.0	0.0	0.0	146.0	0.0	0.046935915	-0.10095189	1.005673695	3.8607799999999997	1.0682	-1.8006799999999998	3211118.0	1776544812.133008	0.0	1.0	-1.0	-1.0	-1.0	-1.0	-1.0	-1.0	-1.0	-1.0	0.0	marker	opened-hand	Open	15	0418
-66904.065	-53580.329999999994	-103043.11499999999	-17952.255	0.0	0.0	0.0	0.0	0.0	0.0	0.0	0.0	0.0	0.0	0.0	0.0	0.0	0.0	146.0	0.0	0.046935915	-0.10095189	1.005673695	3.8607799999999997	1.0682	-1.8006799999999998	3211119.0	1776544812.137061	0.0	1.0	-1.0	-1.0	-1.0	-1.0	-1.0	-1.0	-1.0	-1.0	0.0	marker	opened-hand	Open	15	0418
-66856.77	-53575.424999999996	-103075.11	-17956.215	0.0	0.0	0.0	0.0	0.0	0.0	0.0	0.0	0.0	0.0	0.0	0.0	0.0	0.0	146.0	0.0	0.046935915	-0.10095189	1.005673695	3.8607799999999997	1.0682	-1.8006799999999998	3211120.0	1776544812.137075	0.0	1.0	-1.0	-1.0	-1.0	-1.0	-1.0	-1.0	-1.0	-1.0	0.0	marker	opened-hand	Open	15	0418
-66711.78	-53566.92	-103062.64499999999	-17922.78	0.0	0.0	0.0	0.0	0.0	0.0	0.0	0.0	0.0	0.0	0.0	0.0	0.0	0.0	146.0	0.0	0.046935915	-0.10095189	1.005673695	3.8607799999999997	1.0682	-1.8006799999999998	3211121.0	1776544812.141009	0.0	1.0	-1.0	-1.0	-1.0	-1.0	-1.0	-1.0	-1.0	-1.0	0.0	marker	opened-hand	Open	15	0418
-66707.45999999999	-53567.009999999995	-103057.29	-17912.52	0.0	0.0	0.0	0.0	0.0	0.0	0.0	0.0	0.0	0.0	0.0	0.0	0.0	0.0	146.0	0.0	0.046935915	-0.10095189	1.005673695	3.8607799999999997	1.0682	-1.8006799999999998	3211122.0	1776544812.141024	0.0	1.0	-1.0	-1.0	-1.0	-1.0	-1.0	-1.0	-1.0	-1.0	0.0	marker	opened-hand	Open	15	0418
-66667.455	-53563.95	-102974.67	-17850.78	0.0	0.0	0.0	0.0	0.0	0.0	0.0	0.0	0.0	0.0	0.0	0.0	0.0	0.0	146.0	0.0	0.046935915	-0.10095189	1.005673695	3.8607799999999997	1.0682	-1.8006799999999998	3211123.0	1776544812.145065	0.0	1.0	-1.0	-1.0	-1.0	-1.0	-1.0	-1.0	-1.0	-1.0	0.0	marker	opened-hand	Open	15	0418
-66734.55	-53565.75	-102917.34	-17812.17	0.0	0.0	0.0	0.0	0.0	0.0	0.0	0.0	0.0	0.0	0.0	0.0	0.0	0.0	146.0	0.0	0.046935915	-0.10095189	1.005673695	3.8607799999999997	1.0682	-1.8006799999999998	3211124.0	1776544812.145079	0.0	1.0	-1.0	-1.0	-1.0	-1.0	-1.0	-1.0	-1.0	-1.0	0.0	marker	opened-hand	Open	15	0418
-66743.64	-53572.049999999996	-102876.03	-17790.48	0.0	0.0	0.0	0.0	0.0	0.0	0.0	0.0	0.0	0.0	0.0	0.0	0.0	0.0	146.0	0.0	0.046935915	-0.10095189	1.005673695	3.8607799999999997	1.0682	-1.8006799999999998	3211125.0	1776544812.148971	0.0	1.0	-1.0	-1.0	-1.0	-1.0	-1.0	-1.0	-1.0	-1.0	0.0	marker	opened-hand	Open	15	0418
-66819.06	-53574.615	-102955.635	-17882.19	0.0	0.0	0.0	0.0	0.0	0.0	0.0	0.0	0.0	0.0	0.0	0.0	0.0	0.0	146.0	0.0	0.046935915	-0.10095189	1.005673695	3.8607799999999997	1.0682	-1.8006799999999998	3211126.0	1776544812.148982	0.0	1.0	-1.0	-1.0	-1.0	-1.0	-1.0	-1.0	-1.0	-1.0	0.0	marker	opened-hand	Open	15	0418
-66895.65	-53575.335	-103121.50499999999	-18033.03	0.0	0.0	0.0	0.0	0.0	0.0	0.0	0.0	0.0	0.0	0.0	0.0	0.0	0.0	146.0	0.0	0.050720085	-0.098449455	1.008115095	2.73154	1.3428799999999999	-1.4039199999999998	3211127.0	1776544812.153019	0.0	1.0	-1.0	-1.0	-1.0	-1.0	-1.0	-1.0	-1.0	-1.0	0.0	marker	opened-hand	Open	15	0418
-66841.605	-53566.695	-103066.425	-17961.165	0.0	0.0	0.0	0.0	0.0	0.0	0.0	0.0	0.0	0.0	0.0	0.0	0.0	0.0	146.0	0.0	0.050720085	-0.098449455	1.008115095	2.73154	1.3428799999999999	-1.4039199999999998	3211128.0	1776544812.153033	0.0	1.0	-1.0	-1.0	-1.0	-1.0	-1.0	-1.0	-1.0	-1.0	0.0	marker	opened-hand	Open	15	0418
-66750.75	-53538.795	-102857.805	-17782.965	0.0	0.0	0.0	0.0	0.0	0.0	0.0	0.0	0.0	0.0	0.0	0.0	0.0	0.0	146.0	0.0	0.050720085	-0.098449455	1.008115095	2.73154	1.3428799999999999	-1.4039199999999998	3211129.0	1776544812.157047	0.0	1.0	-1.0	-1.0	-1.0	-1.0	-1.0	-1.0	-1.0	-1.0	0.0	marker	opened-hand	Open	15	0418
-66759.97499999999	-53522.369999999995	-102873.33	-17812.98	0.0	0.0	0.0	0.0	0.0	0.0	0.0	0.0	0.0	0.0	0.0	0.0	0.0	0.0	146.0	0.0	0.050720085	-0.098449455	1.008115095	2.73154	1.3428799999999999	-1.4039199999999998	3211130.0	1776544812.157051	0.0	1.0	-1.0	-1.0	-1.0	-1.0	-1.0	-1.0	-1.0	-1.0	0.0	marker	opened-hand	Open	15	0418
-66781.665	-53518.275	-102991.31999999999	-17836.02	0.0	0.0	0.0	0.0	0.0	0.0	0.0	0.0	0.0	0.0	0.0	0.0	0.0	0.0	146.0	0.0	0.050720085	-0.098449455	1.008115095	2.73154	1.3428799999999999	-1.4039199999999998	3211131.0	1776544812.163446	0.0	1.0	-1.0	-1.0	-1.0	-1.0	-1.0	-1.0	-1.0	-1.0	0.0	marker	opened-hand	Open	15	0418
-66955.545	-53534.61	-103175.415	-18002.52	0.0	0.0	0.0	0.0	0.0	0.0	0.0	0.0	0.0	0.0	0.0	0.0	0.0	0.0	146.0	0.0	0.050720085	-0.098449455	1.008115095	2.73154	1.3428799999999999	-1.4039199999999998	3211132.0	1776544812.16346	0.0	1.0	-1.0	-1.0	-1.0	-1.0	-1.0	-1.0	-1.0	-1.0	0.0	marker	opened-hand	Open	15	0418
-67003.065	-53551.53	-103204.17	-18080.28	0.0	0.0	0.0	0.0	0.0	0.0	0.0	0.0	0.0	0.0	0.0	0.0	0.0	0.0	146.0	0.0	0.050720085	-0.098449455	1.008115095	2.73154	1.3428799999999999	-1.4039199999999998	3211133.0	1776544812.166695	0.0	1.0	-1.0	-1.0	-1.0	-1.0	-1.0	-1.0	-1.0	-1.0	0.0	marker	opened-hand	Open	15	0418
-66823.69499999999	-53553.825	-103101.48	-17976.87	0.0	0.0	0.0	0.0	0.0	0.0	0.0	0.0	0.0	0.0	0.0	0.0	0.0	0.0	146.0	0.0	0.050720085	-0.098449455	1.008115095	2.73154	1.3428799999999999	-1.4039199999999998	3211134.0	1776544812.16671	0.0	1.0	-1.0	-1.0	-1.0	-1.0	-1.0	-1.0	-1.0	-1.0	0.0	marker	opened-hand	Open	15	0418
-66797.415	-53561.564999999995	-103065.56999999999	-17961.48	0.0	0.0	0.0	0.0	0.0	0.0	0.0	0.0	0.0	0.0	0.0	0.0	0.0	0.0	146.0	0.0	0.050720085	-0.098449455	1.008115095	2.73154	1.3428799999999999	-1.4039199999999998	3211135.0	1776544812.169636	0.0	1.0	-1.0	-1.0	-1.0	-1.0	-1.0	-1.0	-1.0	-1.0	0.0	marker	opened-hand	Open	15	0418
-66798.22499999999	-53558.055	-102986.50499999999	-17906.265	0.0	0.0	0.0	0.0	0.0	0.0	0.0	0.0	0.0	0.0	0.0	0.0	0.0	0.0	146.0	0.0	0.050720085	-0.098449455	1.008115095	2.73154	1.3428799999999999	-1.4039199999999998	3211136.0	1776544812.16965	0.0	1.0	-1.0	-1.0	-1.0	-1.0	-1.0	-1.0	-1.0	-1.0	0.0	marker	opened-hand	Open	15	0418
-66823.47	-53539.965	-102989.7	-17891.954999999998	0.0	0.0	0.0	0.0	0.0	0.0	0.0	0.0	0.0	0.0	0.0	0.0	0.0	0.0	146.0	0.0	0.049621455	-0.10845919500000001	1.0046361	2.2889999999999997	1.46496	-2.63998	3211137.0	1776544812.173132	0.0	1.0	-1.0	-1.0	-1.0	-1.0	-1.0	-1.0	-1.0	-1.0	0.0	marker	opened-hand	Open	15	0418
-66781.26	-53518.994999999995	-102999.465	-17833.68	0.0	0.0	0.0	0.0	0.0	0.0	0.0	0.0	0.0	0.0	0.0	0.0	0.0	0.0	146.0	0.0	0.049621455	-0.10845919500000001	1.0046361	2.2889999999999997	1.46496	-2.63998	3211138.0	1776544812.173147	0.0	1.0	-1.0	-1.0	-1.0	-1.0	-1.0	-1.0	-1.0	-1.0	0.0	marker	opened-hand	Open	15	0418
-66736.755	-53512.695	-102990.64499999999	-17888.94	0.0	0.0	0.0	0.0	0.0	0.0	0.0	0.0	0.0	0.0	0.0	0.0	0.0	0.0	146.0	0.0	0.049621455	-0.10845919500000001	1.0046361	2.2889999999999997	1.46496	-2.63998	3211139.0	1776544812.177117	0.0	1.0	-1.0	-1.0	-1.0	-1.0	-1.0	-1.0	-1.0	-1.0	0.0	marker	opened-hand	Open	15	0418
-66821.265	-53515.619999999995	-103038.84	-17926.2	0.0	0.0	0.0	0.0	0.0	0.0	0.0	0.0	0.0	0.0	0.0	0.0	0.0	0.0	146.0	0.0	0.049621455	-0.10845919500000001	1.0046361	2.2889999999999997	1.46496	-2.63998	3211140.0	1776544812.177131	0.0	1.0	-1.0	-1.0	-1.0	-1.0	-1.0	-1.0	-1.0	-1.0	0.0	marker	opened-hand	Open	15	0418
-66917.7	-53525.204999999994	-103166.50499999999	-18042.975	0.0	0.0	0.0	0.0	0.0	0.0	0.0	0.0	0.0	0.0	0.0	0.0	0.0	0.0	146.0	0.0	0.049621455	-0.10845919500000001	1.0046361	2.2889999999999997	1.46496	-2.63998	3211141.0	1776544812.18107	0.0	1.0	-1.0	-1.0	-1.0	-1.0	-1.0	-1.0	-1.0	-1.0	0.0	marker	opened-hand	Open	15	0418
-66849.345	-53528.085	-103088.51999999999	-18009.27	0.0	0.0	0.0	0.0	0.0	0.0	0.0	0.0	0.0	0.0	0.0	0.0	0.0	0.0	146.0	0.0	0.049621455	-0.10845919500000001	1.0046361	2.2889999999999997	1.46496	-2.63998	3211142.0	1776544812.181085	0.0	1.0	-1.0	-1.0	-1.0	-1.0	-1.0	-1.0	-1.0	-1.0	0.0	marker	opened-hand	Open	15	0418
-66724.92	-53533.034999999996	-102909.69	-17831.385	0.0	0.0	0.0	0.0	0.0	0.0	0.0	0.0	0.0	0.0	0.0	0.0	0.0	0.0	146.0	0.0	0.049621455	-0.10845919500000001	1.0046361	2.2889999999999997	1.46496	-2.63998	3211143.0	1776544812.185248	0.0	1.0	-1.0	-1.0	-1.0	-1.0	-1.0	-1.0	-1.0	-1.0	0.0	marker	opened-hand	Open	15	0418
-66686.175	-53531.28	-102936.95999999999	-17833.59	0.0	0.0	0.0	0.0	0.0	0.0	0.0	0.0	0.0	0.0	0.0	0.0	0.0	0.0	146.0	0.0	0.049621455	-0.10845919500000001	1.0046361	2.2889999999999997	1.46496	-2.63998	3211144.0	1776544812.185263	0.0	1.0	-1.0	-1.0	-1.0	-1.0	-1.0	-1.0	-1.0	-1.0	0.0	marker	opened-hand	Open	15	0418
-66640.59	-53515.53	-102789.315	-17651.88	0.0	0.0	0.0	0.0	0.0	0.0	0.0	0.0	0.0	0.0	0.0	0.0	0.0	0.0	146.0	0.0	0.049621455	-0.10845919500000001	1.0046361	2.2889999999999997	1.46496	-2.63998	3211145.0	1776544812.189074	0.0	1.0	-1.0	-1.0	-1.0	-1.0	-1.0	-1.0	-1.0	-1.0	0.0	marker	opened-hand	Open	15	0418
-66604.31999999999	-53511.659999999996	-102809.43	-17696.969999999998	0.0	0.0	0.0	0.0	0.0	0.0	0.0	0.0	0.0	0.0	0.0	0.0	0.0	0.0	146.0	0.0	0.049621455	-0.10845919500000001	1.0046361	2.2889999999999997	1.46496	-2.63998	3211146.0	1776544812.189088	0.0	1.0	-1.0	-1.0	-1.0	-1.0	-1.0	-1.0	-1.0	-1.0	0.0	marker	opened-hand	Open	15	0418
-66909.735	-53540.729999999996	-103254.795	-18145.755	0.0	0.0	0.0	0.0	0.0	0.0	0.0	0.0	0.0	0.0	0.0	0.0	0.0	0.0	146.0	0.0	0.049133175	-0.11383027500000001	1.006039905	3.8607799999999997	1.70912	-2.57894	3211147.0	1776544812.19321	0.0	1.0	-1.0	-1.0	-1.0	-1.0	-1.0	-1.0	-1.0	-1.0	0.0	marker	opened-hand	Open	15	0418
-67004.19	-53541.945	-103357.75499999999	-18252.899999999998	0.0	0.0	0.0	0.0	0.0	0.0	0.0	0.0	0.0	0.0	0.0	0.0	0.0	0.0	146.0	0.0	0.049133175	-0.11383027500000001	1.006039905	3.8607799999999997	1.70912	-2.57894	3211148.0	1776544812.193224	0.0	1.0	-1.0	-1.0	-1.0	-1.0	-1.0	-1.0	-1.0	-1.0	0.0	marker	opened-hand	Open	15	0418
-66914.955	-53536.185	-103141.665	-18050.535	0.0	0.0	0.0	0.0	0.0	0.0	0.0	0.0	0.0	0.0	0.0	0.0	0.0	0.0	146.0	0.0	0.049133175	-0.11383027500000001	1.006039905	3.8607799999999997	1.70912	-2.57894	3211149.0	1776544812.197236	0.0	1.0	-1.0	-1.0	-1.0	-1.0	-1.0	-1.0	-1.0	-1.0	0.0	marker	opened-hand	Open	15	0418
-66707.28	-53534.295	-102841.11	-17762.175	0.0	0.0	0.0	0.0	0.0	0.0	0.0	0.0	0.0	0.0	0.0	0.0	0.0	0.0	146.0	0.0	0.049133175	-0.11383027500000001	1.006039905	3.8607799999999997	1.70912	-2.57894	3211150.0	1776544812.19725	0.0	1.0	-1.0	-1.0	-1.0	-1.0	-1.0	-1.0	-1.0	-1.0	0.0	marker	opened-hand	Open	15	0418
-66685.72499999999	-53534.52	-102722.12999999999	-17638.515	0.0	0.0	0.0	0.0	0.0	0.0	0.0	0.0	0.0	0.0	0.0	0.0	0.0	0.0	146.0	0.0	0.049133175	-0.11383027500000001	1.006039905	3.8607799999999997	1.70912	-2.57894	3211151.0	1776544812.201141	0.0	1.0	-1.0	-1.0	-1.0	-1.0	-1.0	-1.0	-1.0	-1.0	0.0	marker	opened-hand	Open	15	0418
-66929.355	-53556.119999999995	-102977.37	-17864.055	0.0	0.0	0.0	0.0	0.0	0.0	0.0	0.0	0.0	0.0	0.0	0.0	0.0	0.0	146.0	0.0	0.049133175	-0.11383027500000001	1.006039905	3.8607799999999997	1.70912	-2.57894	3211152.0	1776544812.201146	0.0	1.0	-1.0	-1.0	-1.0	-1.0	-1.0	-1.0	-1.0	-1.0	0.0	marker	opened-hand	Open	15	0418
-67088.11499999999	-53571.689999999995	-103311.94499999999	-18198.54	0.0	0.0	0.0	0.0	0.0	0.0	0.0	0.0	0.0	0.0	0.0	0.0	0.0	0.0	146.0	0.0	0.049133175	-0.11383027500000001	1.006039905	3.8607799999999997	1.70912	-2.57894	3211153.0	1776544812.205106	0.0	1.0	-1.0	-1.0	-1.0	-1.0	-1.0	-1.0	-1.0	-1.0	0.0	marker	opened-hand	Open	15	0418
-67096.395	-53566.515	-103375.665	-18223.785	0.0	0.0	0.0	0.0	0.0	0.0	0.0	0.0	0.0	0.0	0.0	0.0	0.0	0.0	146.0	0.0	0.049133175	-0.11383027500000001	1.006039905	3.8607799999999997	1.70912	-2.57894	3211154.0	1776544812.20512	0.0	1.0	-1.0	-1.0	-1.0	-1.0	-1.0	-1.0	-1.0	-1.0	0.0	marker	opened-hand	Open	15	0418
-66762.63	-53549.28	-103105.8	-17984.745	0.0	0.0	0.0	0.0	0.0	0.0	0.0	0.0	0.0	0.0	0.0	0.0	0.0	0.0	146.0	0.0	0.049133175	-0.11383027500000001	1.006039905	3.8607799999999997	1.70912	-2.57894	3211155.0	1776544812.218367	0.0	1.0	-1.0	-1.0	-1.0	-1.0	-1.0	-1.0	-1.0	-1.0	0.0	marker	opened-hand	Open	15	0418
-66644.325	-53536.454999999994	-102983.67	-17920.215	0.0	0.0	0.0	0.0	0.0	0.0	0.0	0.0	0.0	0.0	0.0	0.0	0.0	0.0	146.0	0.0	0.049133175	-0.11383027500000001	1.006039905	3.8607799999999997	1.70912	-2.57894	3211156.0	1776544812.218376	0.0	1.0	-1.0	-1.0	-1.0	-1.0	-1.0	-1.0	-1.0	-1.0	0.0	marker	opened-hand	Open	15	0418
-66893.715	-53548.695	-103052.34	-17948.114999999998	0.0	0.0	0.0	0.0	0.0	0.0	0.0	0.0	0.0	0.0	0.0	0.0	0.0	0.0	146.0	0.0	0.03820791	-0.111388875	1.008115095	2.48738	2.22796	-2.9757	3211157.0	1776544812.218386	0.0	1.0	-1.0	-1.0	-1.0	-1.0	-1.0	-1.0	-1.0	-1.0	0.0	marker	opened-hand	Open	15	0418
-66881.11499999999	-53553.06	-103112.19	-17976.239999999998	0.0	0.0	0.0	0.0	0.0	0.0	0.0	0.0	0.0	0.0	0.0	0.0	0.0	0.0	146.0	0.0	0.03820791	-0.111388875	1.008115095	2.48738	2.22796	-2.9757	3211158.0	1776544812.218391	0.0	1.0	-1.0	-1.0	-1.0	-1.0	-1.0	-1.0	-1.0	-1.0	0.0	marker	opened-hand	Open	15	0418
-66682.125	-53547.93	-102970.17	-17862.84	0.0	0.0	0.0	0.0	0.0	0.0	0.0	0.0	0.0	0.0	0.0	0.0	0.0	0.0	146.0	0.0	0.03820791	-0.111388875	1.008115095	2.48738	2.22796	-2.9757	3211159.0	1776544812.218398	0.0	1.0	-1.0	-1.0	-1.0	-1.0	-1.0	-1.0	-1.0	-1.0	0.0	marker	opened-hand	Open	15	0418
-66634.2	-53550.72	-102864.465	-17790.344999999998	0.0	0.0	0.0	0.0	0.0	0.0	0.0	0.0	0.0	0.0	0.0	0.0	0.0	0.0	146.0	0.0	0.03820791	-0.111388875	1.008115095	2.48738	2.22796	-2.9757	3211160.0	1776544812.218404	0.0	1.0	-1.0	-1.0	-1.0	-1.0	-1.0	-1.0	-1.0	-1.0	0.0	marker	opened-hand	Open	15	0418
-66925.08	-53564.67	-102967.515	-17883.63	0.0	0.0	0.0	0.0	0.0	0.0	0.0	0.0	0.0	0.0	0.0	0.0	0.0	0.0	146.0	0.0	0.03820791	-0.111388875	1.008115095	2.48738	2.22796	-2.9757	3211161.0	1776544812.221165	0.0	1.0	-1.0	-1.0	-1.0	-1.0	-1.0	-1.0	-1.0	-1.0	0.0	marker	opened-hand	Open	15	0418
-67075.245	-53564.67	-103153.86	-18025.469999999998	0.0	0.0	0.0	0.0	0.0	0.0	0.0	0.0	0.0	0.0	0.0	0.0	0.0	0.0	146.0	0.0	0.03820791	-0.111388875	1.008115095	2.48738	2.22796	-2.9757	3211162.0	1776544812.221174	0.0	1.0	-1.0	-1.0	-1.0	-1.0	-1.0	-1.0	-1.0	-1.0	0.0	marker	opened-hand	Open	15	0418
-66885.255	-53540.865	-103149.54	-18023.625	0.0	0.0	0.0	0.0	0.0	0.0	0.0	0.0	0.0	0.0	0.0	0.0	0.0	0.0	146.0	0.0	0.03820791	-0.111388875	1.008115095	2.48738	2.22796	-2.9757	3211163.0	1776544812.225237	0.0	1.0	-1.0	-1.0	-1.0	-1.0	-1.0	-1.0	-1.0	-1.0	0.0	marker	opened-hand	Open	15	0418
-66747.465	-53523.0	-103095.45	-17980.065	0.0	0.0	0.0	0.0	0.0	0.0	0.0	0.0	0.0	0.0	0.0	0.0	0.0	0.0	146.0	0.0	0.03820791	-0.111388875	1.008115095	2.48738	2.22796	-2.9757	3211164.0	1776544812.225245	0.0	1.0	-1.0	-1.0	-1.0	-1.0	-1.0	-1.0	-1.0	-1.0	0.0	marker	opened-hand	Open	15	0418
-66810.465	-53524.619999999995	-103006.53	-17874.945	0.0	0.0	0.0	0.0	0.0	0.0	0.0	0.0	0.0	0.0	0.0	0.0	0.0	0.0	146.0	0.0	0.03820791	-0.111388875	1.008115095	2.48738	2.22796	-2.9757	3211165.0	1776544812.229209	0.0	1.0	-1.0	-1.0	-1.0	-1.0	-1.0	-1.0	-1.0	-1.0	0.0	marker	opened-hand	Open	15	0418
-66772.305	-53529.93	-102878.09999999999	-17763.93	0.0	0.0	0.0	0.0	0.0	0.0	0.0	0.0	0.0	0.0	0.0	0.0	0.0	0.0	146.0	0.0	0.03820791	-0.111388875	1.008115095	2.48738	2.22796	-2.9757	3211166.0	1776544812.229224	0.0	1.0	-1.0	-1.0	-1.0	-1.0	-1.0	-1.0	-1.0	-1.0	0.0	marker	opened-hand	Open	15	0418
-66774.23999999999	-53536.229999999996	-102944.83499999999	-17848.305	0.0	0.0	0.0	0.0	0.0	0.0	0.0	0.0	0.0	0.0	0.0	0.0	0.0	0.0	146.0	0.0	0.03869619	-0.1037595	1.01513412	2.1516599999999997	1.2971	-1.8617199999999998	3211167.0	1776544812.233223	0.0	1.0	-1.0	-1.0	-1.0	-1.0	-1.0	-1.0	-1.0	-1.0	0.0	marker	opened-hand	Open	15	0418
-66715.29	-53540.595	-102955.40999999999	-17876.79	0.0	0.0	0.0	0.0	0.0	0.0	0.0	0.0	0.0	0.0	0.0	0.0	0.0	0.0	146.0	0.0	0.03869619	-0.1037595	1.01513412	2.1516599999999997	1.2971	-1.8617199999999998	3211168.0	1776544812.233237	0.0	1.0	-1.0	-1.0	-1.0	-1.0	-1.0	-1.0	-1.0	-1.0	0.0	marker	opened-hand	Open	15	0418
-66726.765	-53542.755	-102857.12999999999	-17743.23	0.0	0.0	0.0	0.0	0.0	0.0	0.0	0.0	0.0	0.0	0.0	0.0	0.0	0.0	146.0	0.0	0.03869619	-0.1037595	1.01513412	2.1516599999999997	1.2971	-1.8617199999999998	3211169.0	1776544812.237412	0.0	1.0	-1.0	-1.0	-1.0	-1.0	-1.0	-1.0	-1.0	-1.0	0.0	marker	opened-hand	Open	15	0418
-66837.915	-53542.575	-102958.965	-17856.495	0.0	0.0	0.0	0.0	0.0	0.0	0.0	0.0	0.0	0.0	0.0	0.0	0.0	0.0	146.0	0.0	0.03869619	-0.1037595	1.01513412	2.1516599999999997	1.2971	-1.8617199999999998	3211170.0	1776544812.237426	0.0	1.0	-1.0	-1.0	-1.0	-1.0	-1.0	-1.0	-1.0	-1.0	0.0	marker	opened-hand	Open	15	0418
-66783.19499999999	-53546.22	-103049.14499999999	-17966.79	0.0	0.0	0.0	0.0	0.0	0.0	0.0	0.0	0.0	0.0	0.0	0.0	0.0	0.0	146.0	0.0	0.03869619	-0.1037595	1.01513412	2.1516599999999997	1.2971	-1.8617199999999998	3211171.0	1776544812.241278	0.0	1.0	-1.0	-1.0	-1.0	-1.0	-1.0	-1.0	-1.0	-1.0	0.0	marker	opened-hand	Open	15	0418
-66803.535	-53546.805	-103124.385	-17974.89	0.0	0.0	0.0	0.0	0.0	0.0	0.0	0.0	0.0	0.0	0.0	0.0	0.0	0.0	146.0	0.0	0.03869619	-0.1037595	1.01513412	2.1516599999999997	1.2971	-1.8617199999999998	3211172.0	1776544812.241286	0.0	1.0	-1.0	-1.0	-1.0	-1.0	-1.0	-1.0	-1.0	-1.0	0.0	marker	opened-hand	Open	15	0418
-66955.185	-53562.24	-103244.76	-18106.065	0.0	0.0	0.0	0.0	0.0	0.0	0.0	0.0	0.0	0.0	0.0	0.0	0.0	0.0	146.0	0.0	0.03869619	-0.1037595	1.01513412	2.1516599999999997	1.2971	-1.8617199999999998	3211173.0	1776544812.246875	0.0	1.0	-1.0	-1.0	-1.0	-1.0	-1.0	-1.0	-1.0	-1.0	0.0	marker	opened-hand	Open	15	0418
-66836.06999999999	-53556.975	-103118.94	-18049.274999999998	0.0	0.0	0.0	0.0	0.0	0.0	0.0	0.0	0.0	0.0	0.0	0.0	0.0	0.0	146.0	0.0	0.03869619	-0.1037595	1.01513412	2.1516599999999997	1.2971	-1.8617199999999998	3211174.0	1776544812.246891	0.0	1.0	-1.0	-1.0	-1.0	-1.0	-1.0	-1.0	-1.0	-1.0	0.0	marker	opened-hand	Open	15	0418
-66464.145	-53532.045	-102724.83	-17658.675	0.0	0.0	0.0	0.0	0.0	0.0	0.0	0.0	0.0	0.0	0.0	0.0	0.0	0.0	146.0	0.0	0.03869619	-0.1037595	1.01513412	2.1516599999999997	1.2971	-1.8617199999999998	3211175.0	1776544812.249323	0.0	1.0	-1.0	-1.0	-1.0	-1.0	-1.0	-1.0	-1.0	-1.0	0.0	marker	opened-hand	Open	15	0418
-66571.155	-53542.125	-102829.23	-17704.215	0.0	0.0	0.0	0.0	0.0	0.0	0.0	0.0	0.0	0.0	0.0	0.0	0.0	0.0	146.0	0.0	0.03869619	-0.1037595	1.01513412	2.1516599999999997	1.2971	-1.8617199999999998	3211176.0	1776544812.24933	0.0	1.0	-1.0	-1.0	-1.0	-1.0	-1.0	-1.0	-1.0	-1.0	0.0	marker	opened-hand	Open	15	0418
-67004.28	-53575.92	-103218.435	-18088.469999999998	0.0	0.0	0.0	0.0	0.0	0.0	0.0	0.0	0.0	0.0	0.0	0.0	0.0	0.0	146.0	0.0	0.039367575	-0.10229466	1.016537925	3.83026	1.55652	-0.50358	3211177.0	1776544812.25454	0.0	1.0	-1.0	-1.0	-1.0	-1.0	-1.0	-1.0	-1.0	-1.0	0.0	marker	opened-hand	Open	15	0418
-66960.27	-53575.604999999996	-103160.295	-18045.405	0.0	0.0	0.0	0.0	0.0	0.0	0.0	0.0	0.0	0.0	0.0	0.0	0.0	0.0	146.0	0.0	0.039367575	-0.10229466	1.016537925	3.83026	1.55652	-0.50358	3211178.0	1776544812.254554	0.0	1.0	-1.0	-1.0	-1.0	-1.0	-1.0	-1.0	-1.0	-1.0	0.0	marker	opened-hand	Open	15	0418
-66971.205	-53571.329999999994	-103111.01999999999	-18010.89	0.0	0.0	0.0	0.0	0.0	0.0	0.0	0.0	0.0	0.0	0.0	0.0	0.0	0.0	146.0	0.0	0.039367575	-0.10229466	1.016537925	3.83026	1.55652	-0.50358	3211179.0	1776544812.257422	0.0	1.0	-1.0	-1.0	-1.0	-1.0	-1.0	-1.0	-1.0	-1.0	0.0	marker	opened-hand	Open	15	0418
-66938.94	-53574.39	-103197.105	-18085.95	0.0	0.0	0.0	0.0	0.0	0.0	0.0	0.0	0.0	0.0	0.0	0.0	0.0	0.0	146.0	0.0	0.039367575	-0.10229466	1.016537925	3.83026	1.55652	-0.50358	3211180.0	1776544812.257431	0.0	1.0	-1.0	-1.0	-1.0	-1.0	-1.0	-1.0	-1.0	-1.0	0.0	marker	opened-hand	Open	15	0418
-66963.285	-53571.689999999995	-103235.4	-18108.855	0.0	0.0	0.0	0.0	0.0	0.0	0.0	0.0	0.0	0.0	0.0	0.0	0.0	0.0	146.0	0.0	0.039367575	-0.10229466	1.016537925	3.83026	1.55652	-0.50358	3211181.0	1776544812.262911	0.0	1.0	-1.0	-1.0	-1.0	-1.0	-1.0	-1.0	-1.0	-1.0	0.0	marker	opened-hand	Open	15	0418
-66890.47499999999	-53568.134999999995	-103190.58	-18067.905	0.0	0.0	0.0	0.0	0.0	0.0	0.0	0.0	0.0	0.0	0.0	0.0	0.0	0.0	146.0	0.0	0.039367575	-0.10229466	1.016537925	3.83026	1.55652	-0.50358	3211182.0	1776544812.262926	0.0	1.0	-1.0	-1.0	-1.0	-1.0	-1.0	-1.0	-1.0	-1.0	0.0	marker	opened-hand	Open	15	0418
-66797.37	-53566.695	-103067.73	-17962.515	0.0	0.0	0.0	0.0	0.0	0.0	0.0	0.0	0.0	0.0	0.0	0.0	0.0	0.0	146.0	0.0	0.039367575	-0.10229466	1.016537925	3.83026	1.55652	-0.50358	3211183.0	1776544812.265838	0.0	1.0	-1.0	-1.0	-1.0	-1.0	-1.0	-1.0	-1.0	-1.0	0.0	marker	opened-hand	Open	15	0418
-66771.54	-53574.93	-102971.385	-17868.015	0.0	0.0	0.0	0.0	0.0	0.0	0.0	0.0	0.0	0.0	0.0	0.0	0.0	0.0	146.0	0.0	0.039367575	-0.10229466	1.016537925	3.83026	1.55652	-0.50358	3211184.0	1776544812.265852	0.0	1.0	-1.0	-1.0	-1.0	-1.0	-1.0	-1.0	-1.0	-1.0	0.0	marker	opened-hand	Open	15	0418
-66759.75	-53581.59	-102933.62999999999	-17811.495	0.0	0.0	0.0	0.0	0.0	0.0	0.0	0.0	0.0	0.0	0.0	0.0	0.0	0.0	146.0	0.0	0.039367575	-0.10229466	1.016537925	3.83026	1.55652	-0.50358	3211185.0	1776544812.27201	0.0	1.0	-1.0	-1.0	-1.0	-1.0	-1.0	-1.0	-1.0	-1.0	0.0	marker	opened-hand	Open	15	0418
-66878.81999999999	-53595.314999999995	-103053.915	-17917.02	0.0	0.0	0.0	0.0	0.0	0.0	0.0	0.0	0.0	0.0	0.0	0.0	0.0	0.0	146.0	0.0	0.039367575	-0.10229466	1.016537925	3.83026	1.55652	-0.50358	3211186.0	1776544812.272042	0.0	1.0	-1.0	-1.0	-1.0	-1.0	-1.0	-1.0	-1.0	-1.0	0.0	marker	opened-hand	Open	15	0418
-66844.53	-53580.96	-103019.12999999999	-17880.84	0.0	0.0	0.0	0.0	0.0	0.0	0.0	0.0	0.0	0.0	0.0	0.0	0.0	0.0	146.0	0.0	0.04431141	-0.105285375	1.02013899	4.2270199999999996	-0.06104	-1.72438	3211187.0	1776544812.275079	0.0	1.0	-1.0	-1.0	-1.0	-1.0	-1.0	-1.0	-1.0	-1.0	0.0	marker	opened-hand	Open	15	0418
-66725.37	-53561.52	-102909.555	-17790.885	0.0	0.0	0.0	0.0	0.0	0.0	0.0	0.0	0.0	0.0	0.0	0.0	0.0	0.0	146.0	0.0	0.04431141	-0.105285375	1.02013899	4.2270199999999996	-0.06104	-1.72438	3211188.0	1776544812.275109	0.0	1.0	-1.0	-1.0	-1.0	-1.0	-1.0	-1.0	-1.0	-1.0	0.0	marker	opened-hand	Open	15	0418
-66649.905	-53549.325	-102813.65999999999	-17700.165	0.0	0.0	0.0	0.0	0.0	0.0	0.0	0.0	0.0	0.0	0.0	0.0	0.0	0.0	146.0	0.0	0.04431141	-0.105285375	1.02013899	4.2270199999999996	-0.06104	-1.72438	3211189.0	1776544812.279759	0.0	1.0	-1.0	-1.0	-1.0	-1.0	-1.0	-1.0	-1.0	-1.0	0.0	marker	opened-hand	Open	15	0418
-66637.305	-53542.845	-102862.98	-17778.645	0.0	0.0	0.0	0.0	0.0	0.0	0.0	0.0	0.0	0.0	0.0	0.0	0.0	0.0	146.0	0.0	0.04431141	-0.105285375	1.02013899	4.2270199999999996	-0.06104	-1.72438	3211190.0	1776544812.279783	0.0	1.0	-1.0	-1.0	-1.0	-1.0	-1.0	-1.0	-1.0	-1.0	0.0	marker	opened-hand	Open	15	0418
-66739.59	-53538.345	-103010.805	-17960.489999999998	0.0	0.0	0.0	0.0	0.0	0.0	0.0	0.0	0.0	0.0	0.0	0.0	0.0	0.0	146.0	0.0	0.04431141	-0.105285375	1.02013899	4.2270199999999996	-0.06104	-1.72438	3211191.0	1776544812.281396	0.0	1.0	-1.0	-1.0	-1.0	-1.0	-1.0	-1.0	-1.0	-1.0	0.0	marker	opened-hand	Open	15	0418
-66713.265	-53544.735	-102974.04	-17883.54	0.0	0.0	0.0	0.0	0.0	0.0	0.0	0.0	0.0	0.0	0.0	0.0	0.0	0.0	146.0	0.0	0.04431141	-0.105285375	1.02013899	4.2270199999999996	-0.06104	-1.72438	3211192.0	1776544812.281416	0.0	1.0	-1.0	-1.0	-1.0	-1.0	-1.0	-1.0	-1.0	-1.0	0.0	marker	opened-hand	Open	15	0418
-66814.92	-53584.695	-102995.50499999999	-17882.91	0.0	0.0	0.0	0.0	0.0	0.0	0.0	0.0	0.0	0.0	0.0	0.0	0.0	0.0	146.0	0.0	0.04431141	-0.105285375	1.02013899	4.2270199999999996	-0.06104	-1.72438	3211193.0	1776544812.285688	0.0	1.0	-1.0	-1.0	-1.0	-1.0	-1.0	-1.0	-1.0	-1.0	0.0	marker	opened-hand	Open	15	0418
-66908.295	-53590.905	-103112.595	-18023.355	0.0	0.0	0.0	0.0	0.0	0.0	0.0	0.0	0.0	0.0	0.0	0.0	0.0	0.0	146.0	0.0	0.04431141	-0.105285375	1.02013899	4.2270199999999996	-0.06104	-1.72438	3211194.0	1776544812.285716	0.0	1.0	-1.0	-1.0	-1.0	-1.0	-1.0	-1.0	-1.0	-1.0	0.0	marker	opened-hand	Open	15	0418
-66825.315	-53573.265	-103004.86499999999	-17887.094999999998	0.0	0.0	0.0	0.0	0.0	0.0	0.0	0.0	0.0	0.0	0.0	0.0	0.0	0.0	146.0	0.0	0.04431141	-0.105285375	1.02013899	4.2270199999999996	-0.06104	-1.72438	3211195.0	1776544812.289494	0.0	1.0	-1.0	-1.0	-1.0	-1.0	-1.0	-1.0	-1.0	-1.0	0.0	marker	opened-hand	Open	15	0418
-66855.33	-53559.314999999995	-102941.955	-17823.195	0.0	0.0	0.0	0.0	0.0	0.0	0.0	0.0	0.0	0.0	0.0	0.0	0.0	0.0	146.0	0.0	0.04431141	-0.105285375	1.02013899	4.2270199999999996	-0.06104	-1.72438	3211196.0	1776544812.289513	0.0	1.0	-1.0	-1.0	-1.0	-1.0	-1.0	-1.0	-1.0	-1.0	0.0	marker	opened-hand	Open	15	0418
-66644.415	-53545.14	-102873.42	-17760.555	0.0	0.0	0.0	0.0	0.0	0.0	0.0	0.0	0.0	0.0	0.0	0.0	0.0	0.0	146.0	0.0	0.03710928	-0.100524645	1.023740055	2.47212	-0.8392999999999999	-1.4039199999999998	3211197.0	1776544812.293519	0.0	1.0	-1.0	-1.0	-1.0	-1.0	-1.0	-1.0	-1.0	-1.0	0.0	marker	opened-hand	Open	15	0418
-66431.205	-53537.895	-102681.54	-17575.29	0.0	0.0	0.0	0.0	0.0	0.0	0.0	0.0	0.0	0.0	0.0	0.0	0.0	0.0	146.0	0.0	0.03710928	-0.100524645	1.023740055	2.47212	-0.8392999999999999	-1.4039199999999998	3211198.0	1776544812.293546	0.0	1.0	-1.0	-1.0	-1.0	-1.0	-1.0	-1.0	-1.0	-1.0	0.0	marker	opened-hand	Open	15	0418
-66815.595	-53570.7	-103011.705	-17864.37	0.0	0.0	0.0	0.0	0.0	0.0	0.0	0.0	0.0	0.0	0.0	0.0	0.0	0.0	146.0	0.0	0.03710928	-0.100524645	1.023740055	2.47212	-0.8392999999999999	-1.4039199999999998	3211199.0	1776544812.297596	0.0	1.0	-1.0	-1.0	-1.0	-1.0	-1.0	-1.0	-1.0	-1.0	0.0	marker	opened-hand	Open	15	0418
-67036.41	-53594.775	-103298.355	-18193.094999999998	0.0	0.0	0.0	0.0	0.0	0.0	0.0	0.0	0.0	0.0	0.0	0.0	0.0	0.0	146.0	0.0	0.03710928	-0.100524645	1.023740055	2.47212	-0.8392999999999999	-1.4039199999999998	3211200.0	1776544812.297627	0.0	1.0	-1.0	-1.0	-1.0	-1.0	-1.0	-1.0	-1.0	-1.0	0.0	marker	opened-hand	Open	15	0418
-66943.485	-53589.689999999995	-103156.56	-18048.735	0.0	0.0	0.0	0.0	0.0	0.0	0.0	0.0	0.0	0.0	0.0	0.0	0.0	0.0	146.0	0.0	0.03710928	-0.100524645	1.023740055	2.47212	-0.8392999999999999	-1.4039199999999998	3211201.0	1776544812.301529	0.0	1.0	-1.0	-1.0	-1.0	-1.0	-1.0	-1.0	-1.0	-1.0	0.0	marker	opened-hand	Open	15	0418
-66723.165	-53567.82	-102874.31999999999	-17749.62	0.0	0.0	0.0	0.0	0.0	0.0	0.0	0.0	0.0	0.0	0.0	0.0	0.0	0.0	146.0	0.0	0.03710928	-0.100524645	1.023740055	2.47212	-0.8392999999999999	-1.4039199999999998	3211202.0	1776544812.301546	0.0	1.0	-1.0	-1.0	-1.0	-1.0	-1.0	-1.0	-1.0	-1.0	0.0	marker	opened-hand	Open	15	0418
-66600.495	-53541.945	-102674.51999999999	-17550.405	0.0	0.0	0.0	0.0	0.0	0.0	0.0	0.0	0.0	0.0	0.0	0.0	0.0	0.0	146.0	0.0	0.03710928	-0.100524645	1.023740055	2.47212	-0.8392999999999999	-1.4039199999999998	3211203.0	1776544812.305499	0.0	1.0	-1.0	-1.0	-1.0	-1.0	-1.0	-1.0	-1.0	-1.0	0.0	marker	opened-hand	Open	15	0418
-66784.41	-53546.265	-103012.83	-17872.515	0.0	0.0	0.0	0.0	0.0	0.0	0.0	0.0	0.0	0.0	0.0	0.0	0.0	0.0	146.0	0.0	0.03710928	-0.100524645	1.023740055	2.47212	-0.8392999999999999	-1.4039199999999998	3211204.0	1776544812.305511	0.0	1.0	-1.0	-1.0	-1.0	-1.0	-1.0	-1.0	-1.0	-1.0	0.0	marker	opened-hand	Open	15	0418
-67049.37	-53561.744999999995	-103206.64499999999	-18062.145	0.0	0.0	0.0	0.0	0.0	0.0	0.0	0.0	0.0	0.0	0.0	0.0	0.0	0.0	146.0	0.0	0.03710928	-0.100524645	1.023740055	2.47212	-0.8392999999999999	-1.4039199999999998	3211205.0	1776544812.31346	0.0	1.0	-1.0	-1.0	-1.0	-1.0	-1.0	-1.0	-1.0	-1.0	0.0	marker	opened-hand	Open	15	0418
-66930.12	-53561.79	-103095.405	-17919.45	0.0	0.0	0.0	0.0	0.0	0.0	0.0	0.0	0.0	0.0	0.0	0.0	0.0	0.0	146.0	0.0	0.03710928	-0.100524645	1.023740055	2.47212	-0.8392999999999999	-1.4039199999999998	3211206.0	1776544812.313488	0.0	1.0	-1.0	-1.0	-1.0	-1.0	-1.0	-1.0	-1.0	-1.0	0.0	marker	opened-hand	Open	15	0418
-66545.955	-53558.505	-102911.12999999999	-17776.665	0.0	0.0	0.0	0.0	0.0	0.0	0.0	0.0	0.0	0.0	0.0	0.0	0.0	0.0	146.0	0.0	0.035461335000000004	-0.097350825	1.02319074	0.85456	-1.2971	-0.18312	3211207.0	1776544812.313525	0.0	1.0	-1.0	-1.0	-1.0	-1.0	-1.0	-1.0	-1.0	-1.0	0.0	marker	opened-hand	Open	15	0418
-66642.03	-53578.845	-102949.01999999999	-17830.17	0.0	0.0	0.0	0.0	0.0	0.0	0.0	0.0	0.0	0.0	0.0	0.0	0.0	0.0	146.0	0.0	0.035461335000000004	-0.097350825	1.02319074	0.85456	-1.2971	-0.18312	3211208.0	1776544812.313544	0.0	1.0	-1.0	-1.0	-1.0	-1.0	-1.0	-1.0	-1.0	-1.0	0.0	marker	opened-hand	Open	15	0418
-66867.48	-53594.189999999995	-102995.595	-17831.61	0.0	0.0	0.0	0.0	0.0	0.0	0.0	0.0	0.0	0.0	0.0	0.0	0.0	0.0	146.0	0.0	0.035461335000000004	-0.097350825	1.02319074	0.85456	-1.2971	-0.18312	3211209.0	1776544812.317681	0.0	1.0	-1.0	-1.0	-1.0	-1.0	-1.0	-1.0	-1.0	-1.0	0.0	marker	opened-hand	Open	15	0418
-66919.635	-53597.88	-103112.19	-17953.469999999998	0.0	0.0	0.0	0.0	0.0	0.0	0.0	0.0	0.0	0.0	0.0	0.0	0.0	0.0	146.0	0.0	0.035461335000000004	-0.097350825	1.02319074	0.85456	-1.2971	-0.18312	3211210.0	1776544812.317704	0.0	1.0	-1.0	-1.0	-1.0	-1.0	-1.0	-1.0	-1.0	-1.0	0.0	marker	opened-hand	Open	15	0418
-66860.055	-53595.09	-103139.50499999999	-18030.645	0.0	0.0	0.0	0.0	0.0	0.0	0.0	0.0	0.0	0.0	0.0	0.0	0.0	0.0	146.0	0.0	0.035461335000000004	-0.097350825	1.02319074	0.85456	-1.2971	-0.18312	3211211.0	1776544812.324125	0.0	1.0	-1.0	-1.0	-1.0	-1.0	-1.0	-1.0	-1.0	-1.0	0.0	marker	opened-hand	Open	15	0418
-66777.56999999999	-53580.509999999995	-102931.245	-17818.965	0.0	0.0	0.0	0.0	0.0	0.0	0.0	0.0	0.0	0.0	0.0	0.0	0.0	0.0	146.0	0.0	0.035461335000000004	-0.097350825	1.02319074	0.85456	-1.2971	-0.18312	3211212.0	1776544812.324155	0.0	1.0	-1.0	-1.0	-1.0	-1.0	-1.0	-1.0	-1.0	-1.0	0.0	marker	opened-hand	Open	15	0418
-66804.56999999999	-53571.015	-102920.04	-17830.485	0.0	0.0	0.0	0.0	0.0	0.0	0.0	0.0	0.0	0.0	0.0	0.0	0.0	0.0	146.0	0.0	0.035461335000000004	-0.097350825	1.02319074	0.85456	-1.2971	-0.18312	3211213.0	1776544812.325558	0.0	1.0	-1.0	-1.0	-1.0	-1.0	-1.0	-1.0	-1.0	-1.0	0.0	marker	opened-hand	Open	15	0418
-66883.185	-53569.215	-103089.42	-17951.805	0.0	0.0	0.0	0.0	0.0	0.0	0.0	0.0	0.0	0.0	0.0	0.0	0.0	0.0	146.0	0.0	0.035461335000000004	-0.097350825	1.02319074	0.85456	-1.2971	-0.18312	3211214.0	1776544812.325581	0.0	1.0	-1.0	-1.0	-1.0	-1.0	-1.0	-1.0	-1.0	-1.0	0.0	marker	opened-hand	Open	15	0418
-66843.72	-53566.829999999994	-102992.175	-17880.84	0.0	0.0	0.0	0.0	0.0	0.0	0.0	0.0	0.0	0.0	0.0	0.0	0.0	0.0	146.0	0.0	0.035461335000000004	-0.097350825	1.02319074	0.85456	-1.2971	-0.18312	3211215.0	1776544812.329562	0.0	1.0	-1.0	-1.0	-1.0	-1.0	-1.0	-1.0	-1.0	-1.0	0.0	marker	opened-hand	Open	15	0418
-66964.5	-53569.935	-103015.305	-17905.454999999998	0.0	0.0	0.0	0.0	0.0	0.0	0.0	0.0	0.0	0.0	0.0	0.0	0.0	0.0	146.0	0.0	0.035461335000000004	-0.097350825	1.02319074	0.85456	-1.2971	-0.18312	3211216.0	1776544812.329582	0.0	1.0	-1.0	-1.0	-1.0	-1.0	-1.0	-1.0	-1.0	-1.0	0.0	marker	opened-hand	Open	15	0418
-66947.22	-53572.68	-103252.185	-18151.469999999998	0.0	0.0	0.0	0.0	0.0	0.0	0.0	0.0	0.0	0.0	0.0	0.0	0.0	0.0	146.0	0.0	0.037292385	-0.105651585	1.026059385	2.5942	-1.9990599999999998	0.09156	3211217.0	1776544812.333729	0.0	1.0	-1.0	-1.0	-1.0	-1.0	-1.0	-1.0	-1.0	-1.0	0.0	marker	opened-hand	Open	15	0418
-66874.68	-53570.655	-103263.075	-18202.815	0.0	0.0	0.0	0.0	0.0	0.0	0.0	0.0	0.0	0.0	0.0	0.0	0.0	0.0	146.0	0.0	0.037292385	-0.105651585	1.026059385	2.5942	-1.9990599999999998	0.09156	3211218.0	1776544812.333765	0.0	1.0	-1.0	-1.0	-1.0	-1.0	-1.0	-1.0	-1.0	-1.0	0.0	marker	opened-hand	Open	15	0418
-67021.33499999999	-53571.015	-103276.62	-18170.055	0.0	0.0	0.0	0.0	0.0	0.0	0.0	0.0	0.0	0.0	0.0	0.0	0.0	0.0	146.0	0.0	0.037292385	-0.105651585	1.026059385	2.5942	-1.9990599999999998	0.09156	3211219.0	1776544812.337731	0.0	1.0	-1.0	-1.0	-1.0	-1.0	-1.0	-1.0	-1.0	-1.0	0.0	marker	opened-hand	Open	15	0418
-66942.81	-53588.97	-103170.59999999999	-18050.265	0.0	0.0	0.0	0.0	0.0	0.0	0.0	0.0	0.0	0.0	0.0	0.0	0.0	0.0	146.0	0.0	0.037292385	-0.105651585	1.026059385	2.5942	-1.9990599999999998	0.09156	3211220.0	1776544812.337753	0.0	1.0	-1.0	-1.0	-1.0	-1.0	-1.0	-1.0	-1.0	-1.0	0.0	marker	opened-hand	Open	15	0418
-66786.705	-53599.95	-103078.485	-17986.454999999998	0.0	0.0	0.0	0.0	0.0	0.0	0.0	0.0	0.0	0.0	0.0	0.0	0.0	0.0	146.0	0.0	0.037292385	-0.105651585	1.026059385	2.5942	-1.9990599999999998	0.09156	3211221.0	1776544812.341796	0.0	1.0	-1.0	-1.0	-1.0	-1.0	-1.0	-1.0	-1.0	-1.0	0.0	marker	opened-hand	Open	15	0418
-66830.44499999999	-53606.924999999996	-103121.28	-18032.445	0.0	0.0	0.0	0.0	0.0	0.0	0.0	0.0	0.0	0.0	0.0	0.0	0.0	0.0	146.0	0.0	0.037292385	-0.105651585	1.026059385	2.5942	-1.9990599999999998	0.09156	3211222.0	1776544812.341816	0.0	1.0	-1.0	-1.0	-1.0	-1.0	-1.0	-1.0	-1.0	-1.0	0.0	marker	opened-hand	Open	15	0418
-66791.295	-53602.604999999996	-103050.045	-17970.344999999998	0.0	0.0	0.0	0.0	0.0	0.0	0.0	0.0	0.0	0.0	0.0	0.0	0.0	0.0	146.0	0.0	0.037292385	-0.105651585	1.026059385	2.5942	-1.9990599999999998	0.09156	3211223.0	1776544812.345664	0.0	1.0	-1.0	-1.0	-1.0	-1.0	-1.0	-1.0	-1.0	-1.0	0.0	marker	opened-hand	Open	15	0418
-66752.19	-53612.775	-103020.56999999999	-17913.149999999998	0.0	0.0	0.0	0.0	0.0	0.0	0.0	0.0	0.0	0.0	0.0	0.0	0.0	0.0	146.0	0.0	0.037292385	-0.105651585	1.026059385	2.5942	-1.9990599999999998	0.09156	3211224.0	1776544812.34568	0.0	1.0	-1.0	-1.0	-1.0	-1.0	-1.0	-1.0	-1.0	-1.0	0.0	marker	opened-hand	Open	15	0418
-66756.375	-53627.67	-102998.295	-17879.805	0.0	0.0	0.0	0.0	0.0	0.0	0.0	0.0	0.0	0.0	0.0	0.0	0.0	0.0	146.0	0.0	0.037292385	-0.105651585	1.026059385	2.5942	-1.9990599999999998	0.09156	3211225.0	1776544812.349774	0.0	1.0	-1.0	-1.0	-1.0	-1.0	-1.0	-1.0	-1.0	-1.0	0.0	marker	opened-hand	Open	15	0418
-66833.415	-53634.6	-103006.89	-17901.719999999998	0.0	0.0	0.0	0.0	0.0	0.0	0.0	0.0	0.0	0.0	0.0	0.0	0.0	0.0	146.0	0.0	0.037292385	-0.105651585	1.026059385	2.5942	-1.9990599999999998	0.09156	3211226.0	1776544812.349808	0.0	1.0	-1.0	-1.0	-1.0	-1.0	-1.0	-1.0	-1.0	-1.0	0.0	marker	opened-hand	Open	15	0418
-66837.42	-53638.29	-103019.31	-17901.719999999998	0.0	0.0	0.0	0.0	0.0	0.0	0.0	0.0	0.0	0.0	0.0	0.0	0.0	0.0	146.0	0.0	0.03881826	-0.105651585	1.02306867	2.7010199999999998	-2.77732	1.2055399999999998	3211227.0	1776544812.35379	0.0	1.0	-1.0	-1.0	-1.0	-1.0	-1.0	-1.0	-1.0	-1.0	0.0	marker	opened-hand	Open	15	0418
-66614.58	-53612.1	-102752.14499999999	-17671.5	0.0	0.0	0.0	0.0	0.0	0.0	0.0	0.0	0.0	0.0	0.0	0.0	0.0	0.0	146.0	0.0	0.03881826	-0.105651585	1.02306867	2.7010199999999998	-2.77732	1.2055399999999998	3211228.0	1776544812.353814	0.0	1.0	-1.0	-1.0	-1.0	-1.0	-1.0	-1.0	-1.0	-1.0	0.0	marker	opened-hand	Open	15	0418
-66336.48	-53586.765	-102543.39	-17491.815	0.0	0.0	0.0	0.0	0.0	0.0	0.0	0.0	0.0	0.0	0.0	0.0	0.0	0.0	146.0	0.0	0.03881826	-0.105651585	1.02306867	2.7010199999999998	-2.77732	1.2055399999999998	3211229.0	1776544812.357611	0.0	1.0	-1.0	-1.0	-1.0	-1.0	-1.0	-1.0	-1.0	-1.0	0.0	marker	opened-hand	Open	15	0418
-66654.855	-53608.005	-102880.44	-17794.305	0.0	0.0	0.0	0.0	0.0	0.0	0.0	0.0	0.0	0.0	0.0	0.0	0.0	0.0	146.0	0.0	0.03881826	-0.105651585	1.02306867	2.7010199999999998	-2.77732	1.2055399999999998	3211230.0	1776544812.357627	0.0	1.0	-1.0	-1.0	-1.0	-1.0	-1.0	-1.0	-1.0	-1.0	0.0	marker	opened-hand	Open	15	0418
-67010.13	-53644.005	-103293.315	-18183.69	0.0	0.0	0.0	0.0	0.0	0.0	0.0	0.0	0.0	0.0	0.0	0.0	0.0	0.0	146.0	0.0	0.03881826	-0.105651585	1.02306867	2.7010199999999998	-2.77732	1.2055399999999998	3211231.0	1776544812.361801	0.0	1.0	-1.0	-1.0	-1.0	-1.0	-1.0	-1.0	-1.0	-1.0	0.0	marker	opened-hand	Open	15	0418
-66992.94	-53647.875	-103264.01999999999	-18136.35	0.0	0.0	0.0	0.0	0.0	0.0	0.0	0.0	0.0	0.0	0.0	0.0	0.0	0.0	146.0	0.0	0.03881826	-0.105651585	1.02306867	2.7010199999999998	-2.77732	1.2055399999999998	3211232.0	1776544812.361818	0.0	1.0	-1.0	-1.0	-1.0	-1.0	-1.0	-1.0	-1.0	-1.0	0.0	marker	opened-hand	Open	15	0418
-66944.52	-53647.829999999994	-103151.97	-18033.21	0.0	0.0	0.0	0.0	0.0	0.0	0.0	0.0	0.0	0.0	0.0	0.0	0.0	0.0	146.0	0.0	0.03881826	-0.105651585	1.02306867	2.7010199999999998	-2.77732	1.2055399999999998	3211233.0	1776544812.368351	0.0	1.0	-1.0	-1.0	-1.0	-1.0	-1.0	-1.0	-1.0	-1.0	0.0	marker	opened-hand	Open	15	0418
-66837.33	-53643.689999999995	-103022.45999999999	-17925.614999999998	0.0	0.0	0.0	0.0	0.0	0.0	0.0	0.0	0.0	0.0	0.0	0.0	0.0	0.0	146.0	0.0	0.03881826	-0.105651585	1.02306867	2.7010199999999998	-2.77732	1.2055399999999998	3211234.0	1776544812.368402	0.0	1.0	-1.0	-1.0	-1.0	-1.0	-1.0	-1.0	-1.0	-1.0	0.0	marker	opened-hand	Open	15	0418
-66745.665	-53637.975	-102910.68	-17801.28	0.0	0.0	0.0	0.0	0.0	0.0	0.0	0.0	0.0	0.0	0.0	0.0	0.0	0.0	146.0	0.0	0.03881826	-0.105651585	1.02306867	2.7010199999999998	-2.77732	1.2055399999999998	3211235.0	1776544812.377434	0.0	1.0	-1.0	-1.0	-1.0	-1.0	-1.0	-1.0	-1.0	-1.0	0.0	marker	opened-hand	Open	15	0418
-66740.94	-53646.03	-102994.83	-17862.39	0.0	0.0	0.0	0.0	0.0	0.0	0.0	0.0	0.0	0.0	0.0	0.0	0.0	0.0	146.0	0.0	0.03881826	-0.105651585	1.02306867	2.7010199999999998	-2.77732	1.2055399999999998	3211236.0	1776544812.377457	0.0	1.0	-1.0	-1.0	-1.0	-1.0	-1.0	-1.0	-1.0	-1.0	0.0	marker	opened-hand	Open	15	0418
-66767.44499999999	-53643.24	-103069.17	-17941.545	0.0	0.0	0.0	0.0	0.0	0.0	0.0	0.0	0.0	0.0	0.0	0.0	0.0	0.0	146.0	0.0	0.045593145	-0.09814428	1.01391342	1.9075	-2.38056	0.51884	3211237.0	1776544812.377489	0.0	1.0	-1.0	-1.0	-1.0	-1.0	-1.0	-1.0	-1.0	-1.0	0.0	marker	opened-hand	Open	15	0418
-66751.065	-53622.045	-102973.185	-17826.21	0.0	0.0	0.0	0.0	0.0	0.0	0.0	0.0	0.0	0.0	0.0	0.0	0.0	0.0	146.0	0.0	0.045593145	-0.09814428	1.01391342	1.9075	-2.38056	0.51884	3211238.0	1776544812.377513	0.0	1.0	-1.0	-1.0	-1.0	-1.0	-1.0	-1.0	-1.0	-1.0	0.0	marker	opened-hand	Open	15	0418
-66753.72	-53605.799999999996	-102967.56	-17811.405	0.0	0.0	0.0	0.0	0.0	0.0	0.0	0.0	0.0	0.0	0.0	0.0	0.0	0.0	146.0	0.0	0.045593145	-0.09814428	1.01391342	1.9075	-2.38056	0.51884	3211239.0	1776544812.377539	0.0	1.0	-1.0	-1.0	-1.0	-1.0	-1.0	-1.0	-1.0	-1.0	0.0	marker	opened-hand	Open	15	0418
-66772.98	-53598.78	-102987.855	-17856.495	0.0	0.0	0.0	0.0	0.0	0.0	0.0	0.0	0.0	0.0	0.0	0.0	0.0	0.0	146.0	0.0	0.045593145	-0.09814428	1.01391342	1.9075	-2.38056	0.51884	3211240.0	1776544812.377556	0.0	1.0	-1.0	-1.0	-1.0	-1.0	-1.0	-1.0	-1.0	-1.0	0.0	marker	opened-hand	Open	15	0418
-66749.4	-53605.935	-102991.14	-17911.53	0.0	0.0	0.0	0.0	0.0	0.0	0.0	0.0	0.0	0.0	0.0	0.0	0.0	0.0	146.0	0.0	0.045593145	-0.09814428	1.01391342	1.9075	-2.38056	0.51884	3211241.0	1776544812.381765	0.0	1.0	-1.0	-1.0	-1.0	-1.0	-1.0	-1.0	-1.0	-1.0	0.0	marker	opened-hand	Open	15	0418
-66768.075	-53618.4	-103017.15	-17941.95	0.0	0.0	0.0	0.0	0.0	0.0	0.0	0.0	0.0	0.0	0.0	0.0	0.0	0.0	146.0	0.0	0.045593145	-0.09814428	1.01391342	1.9075	-2.38056	0.51884	3211242.0	1776544812.381787	0.0	1.0	-1.0	-1.0	-1.0	-1.0	-1.0	-1.0	-1.0	-1.0	0.0	marker	opened-hand	Open	15	0418
-66777.705	-53624.07	-103030.83	-17926.38	0.0	0.0	0.0	0.0	0.0	0.0	0.0	0.0	0.0	0.0	0.0	0.0	0.0	0.0	146.0	0.0	0.045593145	-0.09814428	1.01391342	1.9075	-2.38056	0.51884	3211243.0	1776544812.385849	0.0	1.0	-1.0	-1.0	-1.0	-1.0	-1.0	-1.0	-1.0	-1.0	0.0	marker	opened-hand	Open	15	0418
-66781.26	-53620.965	-102994.69499999999	-17864.954999999998	0.0	0.0	0.0	0.0	0.0	0.0	0.0	0.0	0.0	0.0	0.0	0.0	0.0	0.0	146.0	0.0	0.045593145	-0.09814428	1.01391342	1.9075	-2.38056	0.51884	3211244.0	1776544812.385872	0.0	1.0	-1.0	-1.0	-1.0	-1.0	-1.0	-1.0	-1.0	-1.0	0.0	marker	opened-hand	Open	15	0418
-66761.64	-53623.619999999995	-102976.605	-17841.059999999998	0.0	0.0	0.0	0.0	0.0	0.0	0.0	0.0	0.0	0.0	0.0	0.0	0.0	0.0	146.0	0.0	0.045593145	-0.09814428	1.01391342	1.9075	-2.38056	0.51884	3211245.0	1776544812.389758	0.0	1.0	-1.0	-1.0	-1.0	-1.0	-1.0	-1.0	-1.0	-1.0	0.0	marker	opened-hand	Open	15	0418
-66949.65	-53633.7	-103225.36499999999	-18097.425	0.0	0.0	0.0	0.0	0.0	0.0	0.0	0.0	0.0	0.0	0.0	0.0	0.0	0.0	146.0	0.0	0.045593145	-0.09814428	1.01391342	1.9075	-2.38056	0.51884	3211246.0	1776544812.389781	0.0	1.0	-1.0	-1.0	-1.0	-1.0	-1.0	-1.0	-1.0	-1.0	0.0	marker	opened-hand	Open	15	0418
-66975.39	-53616.104999999996	-103224.87	-18148.545	0.0	0.0	0.0	0.0	0.0	0.0	0.0	0.0	0.0	0.0	0.0	0.0	0.0	0.0	146.0	0.0	0.053771835000000004	-0.098937735	0.999448125	2.24322	-0.7019599999999999	1.89224	3211247.0	1776544812.393836	0.0	1.0	-1.0	-1.0	-1.0	-1.0	-1.0	-1.0	-1.0	-1.0	0.0	marker	opened-hand	Open	15	0418
-66812.04	-53582.13	-103041.0	-17992.215	0.0	0.0	0.0	0.0	0.0	0.0	0.0	0.0	0.0	0.0	0.0	0.0	0.0	0.0	146.0	0.0	0.053771835000000004	-0.098937735	0.999448125	2.24322	-0.7019599999999999	1.89224	3211248.0	1776544812.393853	0.0	1.0	-1.0	-1.0	-1.0	-1.0	-1.0	-1.0	-1.0	-1.0	0.0	marker	opened-hand	Open	15	0418
-66745.665	-53566.335	-103006.305	-17915.895	0.0	0.0	0.0	0.0	0.0	0.0	0.0	0.0	0.0	0.0	0.0	0.0	0.0	0.0	146.0	0.0	0.053771835000000004	-0.098937735	0.999448125	2.24322	-0.7019599999999999	1.89224	3211249.0	1776544812.397791	0.0	1.0	-1.0	-1.0	-1.0	-1.0	-1.0	-1.0	-1.0	-1.0	0.0	marker	opened-hand	Open	15	0418
-66683.295	-53549.28	-102882.105	-17748.54	0.0	0.0	0.0	0.0	0.0	0.0	0.0	0.0	0.0	0.0	0.0	0.0	0.0	0.0	146.0	0.0	0.053771835000000004	-0.098937735	0.999448125	2.24322	-0.7019599999999999	1.89224	3211250.0	1776544812.397807	0.0	1.0	-1.0	-1.0	-1.0	-1.0	-1.0	-1.0	-1.0	-1.0	0.0	marker	opened-hand	Open	15	0418
-66660.20999999999	-53541.494999999995	-102761.955	-17636.579999999998	0.0	0.0	0.0	0.0	0.0	0.0	0.0	0.0	0.0	0.0	0.0	0.0	0.0	0.0	146.0	0.0	0.053771835000000004	-0.098937735	0.999448125	2.24322	-0.7019599999999999	1.89224	3211251.0	1776544812.40164	0.0	1.0	-1.0	-1.0	-1.0	-1.0	-1.0	-1.0	-1.0	-1.0	0.0	marker	opened-hand	Open	15	0418
-66814.155	-53551.53	-102980.385	-17869.094999999998	0.0	0.0	0.0	0.0	0.0	0.0	0.0	0.0	0.0	0.0	0.0	0.0	0.0	0.0	146.0	0.0	0.053771835000000004	-0.098937735	0.999448125	2.24322	-0.7019599999999999	1.89224	3211252.0	1776544812.401661	0.0	1.0	-1.0	-1.0	-1.0	-1.0	-1.0	-1.0	-1.0	-1.0	0.0	marker	opened-hand	Open	15	0418
-66854.25	-53552.88	-103071.19499999999	-17974.844999999998	0.0	0.0	0.0	0.0	0.0	0.0	0.0	0.0	0.0	0.0	0.0	0.0	0.0	0.0	146.0	0.0	0.053771835000000004	-0.098937735	0.999448125	2.24322	-0.7019599999999999	1.89224	3211253.0	1776544812.407731	0.0	1.0	-1.0	-1.0	-1.0	-1.0	-1.0	-1.0	-1.0	-1.0	0.0	marker	opened-hand	Open	15	0418
-66968.28	-53554.545	-103134.95999999999	-18037.26	0.0	0.0	0.0	0.0	0.0	0.0	0.0	0.0	0.0	0.0	0.0	0.0	0.0	0.0	146.0	0.0	0.053771835000000004	-0.098937735	0.999448125	2.24322	-0.7019599999999999	1.89224	3211254.0	1776544812.407755	0.0	1.0	-1.0	-1.0	-1.0	-1.0	-1.0	-1.0	-1.0	-1.0	0.0	marker	opened-hand	Open	15	0418
-66942.18	-53558.954999999994	-103101.56999999999	-17980.649999999998	0.0	0.0	0.0	0.0	0.0	0.0	0.0	0.0	0.0	0.0	0.0	0.0	0.0	0.0	146.0	0.0	0.053771835000000004	-0.098937735	0.999448125	2.24322	-0.7019599999999999	1.89224	3211255.0	1776544812.409907	0.0	1.0	-1.0	-1.0	-1.0	-1.0	-1.0	-1.0	-1.0	-1.0	0.0	marker	opened-hand	Open	15	0418
-66827.16	-53560.125	-103014.855	-17861.265	0.0	0.0	0.0	0.0	0.0	0.0	0.0	0.0	0.0	0.0	0.0	0.0	0.0	0.0	146.0	0.0	0.053771835000000004	-0.098937735	0.999448125	2.24322	-0.7019599999999999	1.89224	3211256.0	1776544812.409923	0.0	1.0	-1.0	-1.0	-1.0	-1.0	-1.0	-1.0	-1.0	-1.0	0.0	marker	opened-hand	Open	15	0418
-66825.09	-53571.06	-103076.415	-17927.01	0.0	0.0	0.0	0.0	0.0	0.0	0.0	0.0	0.0	0.0	0.0	0.0	0.0	0.0	146.0	0.0	0.055114605000000004	-0.114074415	0.9976781100000001	2.86888	0.32045999999999997	-0.09156	3211257.0	1776544812.414066	0.0	1.0	-1.0	-1.0	-1.0	-1.0	-1.0	-1.0	-1.0	-1.0	0.0	marker	opened-hand	Open	15	0418
-66730.905	-53568.18	-103002.61499999999	-17871.03	0.0	0.0	0.0	0.0	0.0	0.0	0.0	0.0	0.0	0.0	0.0	0.0	0.0	0.0	146.0	0.0	0.055114605000000004	-0.114074415	0.9976781100000001	2.86888	0.32045999999999997	-0.09156	3211258.0	1776544812.414093	0.0	1.0	-1.0	-1.0	-1.0	-1.0	-1.0	-1.0	-1.0	-1.0	0.0	marker	opened-hand	Open	15	0418
-66733.155	-53571.555	-102974.04	-17880.704999999998	0.0	0.0	0.0	0.0	0.0	0.0	0.0	0.0	0.0	0.0	0.0	0.0	0.0	0.0	146.0	0.0	0.055114605000000004	-0.114074415	0.9976781100000001	2.86888	0.32045999999999997	-0.09156	3211259.0	1776544812.417926	0.0	1.0	-1.0	-1.0	-1.0	-1.0	-1.0	-1.0	-1.0	-1.0	0.0	marker	opened-hand	Open	15	0418
-66743.28	-53563.994999999995	-102940.92	-17844.795	0.0	0.0	0.0	0.0	0.0	0.0	0.0	0.0	0.0	0.0	0.0	0.0	0.0	0.0	146.0	0.0	0.055114605000000004	-0.114074415	0.9976781100000001	2.86888	0.32045999999999997	-0.09156	3211260.0	1776544812.417949	0.0	1.0	-1.0	-1.0	-1.0	-1.0	-1.0	-1.0	-1.0	-1.0	0.0	marker	opened-hand	Open	15	0418
-66720.465	-53543.88	-102890.15999999999	-17775.36	0.0	0.0	0.0	0.0	0.0	0.0	0.0	0.0	0.0	0.0	0.0	0.0	0.0	0.0	146.0	0.0	0.055114605000000004	-0.114074415	0.9976781100000001	2.86888	0.32045999999999997	-0.09156	3211261.0	1776544812.421961	0.0	1.0	-1.0	-1.0	-1.0	-1.0	-1.0	-1.0	-1.0	-1.0	0.0	marker	opened-hand	Open	15	0418
-66688.425	-53535.06	-102956.265	-17854.695	0.0	0.0	0.0	0.0	0.0	0.0	0.0	0.0	0.0	0.0	0.0	0.0	0.0	0.0	146.0	0.0	0.055114605000000004	-0.114074415	0.9976781100000001	2.86888	0.32045999999999997	-0.09156	3211262.0	1776544812.421988	0.0	1.0	-1.0	-1.0	-1.0	-1.0	-1.0	-1.0	-1.0	-1.0	0.0	marker	opened-hand	Open	15	0418
-66899.83499999999	-53544.42	-103189.14	-18063.989999999998	0.0	0.0	0.0	0.0	0.0	0.0	0.0	0.0	0.0	0.0	0.0	0.0	0.0	0.0	146.0	0.0	0.055114605000000004	-0.114074415	0.9976781100000001	2.86888	0.32045999999999997	-0.09156	3211263.0	1776544812.427454	0.0	1.0	-1.0	-1.0	-1.0	-1.0	-1.0	-1.0	-1.0	-1.0	0.0	marker	opened-hand	Open	15	0418
-66914.86499999999	-53547.165	-103205.745	-18112.905	0.0	0.0	0.0	0.0	0.0	0.0	0.0	0.0	0.0	0.0	0.0	0.0	0.0	0.0	146.0	0.0	0.055114605000000004	-0.114074415	0.9976781100000001	2.86888	0.32045999999999997	-0.09156	3211264.0	1776544812.427471	0.0	1.0	-1.0	-1.0	-1.0	-1.0	-1.0	-1.0	-1.0	-1.0	0.0	marker	opened-hand	Open	15	0418
-66758.13	-53532.72	-102976.37999999999	-17869.68	0.0	0.0	0.0	0.0	0.0	0.0	0.0	0.0	0.0	0.0	0.0	0.0	0.0	0.0	146.0	0.0	0.055114605000000004	-0.114074415	0.9976781100000001	2.86888	0.32045999999999997	-0.09156	3211265.0	1776544812.429896	0.0	1.0	-1.0	-1.0	-1.0	-1.0	-1.0	-1.0	-1.0	-1.0	0.0	marker	opened-hand	Open	15	0418
-66723.885	-53530.02	-102998.61	-17847.855	0.0	0.0	0.0	0.0	0.0	0.0	0.0	0.0	0.0	0.0	0.0	0.0	0.0	0.0	146.0	0.0	0.055114605000000004	-0.114074415	0.9976781100000001	2.86888	0.32045999999999997	-0.09156	3211266.0	1776544812.429911	0.0	1.0	-1.0	-1.0	-1.0	-1.0	-1.0	-1.0	-1.0	-1.0	0.0	marker	opened-hand	Open	15	0418
-66854.565	-53538.299999999996	-103094.37	-17951.805	0.0	0.0	0.0	0.0	0.0	0.0	0.0	0.0	0.0	0.0	0.0	0.0	0.0	0.0	146.0	0.0	0.04626453	-0.116027535	1.00243884	2.4263399999999997	0.6409199999999999	-0.62566	3211267.0	1776544812.433975	0.0	1.0	-1.0	-1.0	-1.0	-1.0	-1.0	-1.0	-1.0	-1.0	0.0	marker	opened-hand	Open	15	0418
-66914.81999999999	-53543.97	-103054.905	-17936.64	0.0	0.0	0.0	0.0	0.0	0.0	0.0	0.0	0.0	0.0	0.0	0.0	0.0	0.0	146.0	0.0	0.04626453	-0.116027535	1.00243884	2.4263399999999997	0.6409199999999999	-0.62566	3211268.0	1776544812.433995	0.0	1.0	-1.0	-1.0	-1.0	-1.0	-1.0	-1.0	-1.0	-1.0	0.0	marker	opened-hand	Open	15	0418
-66872.79	-53539.515	-103037.355	-17930.655	0.0	0.0	0.0	0.0	0.0	0.0	0.0	0.0	0.0	0.0	0.0	0.0	0.0	0.0	146.0	0.0	0.04626453	-0.116027535	1.00243884	2.4263399999999997	0.6409199999999999	-0.62566	3211269.0	1776544812.438684	0.0	1.0	-1.0	-1.0	-1.0	-1.0	-1.0	-1.0	-1.0	-1.0	0.0	marker	opened-hand	Open	15	0418
-66776.175	-53532.36	-103030.155	-17936.415	0.0	0.0	0.0	0.0	0.0	0.0	0.0	0.0	0.0	0.0	0.0	0.0	0.0	0.0	146.0	0.0	0.04626453	-0.116027535	1.00243884	2.4263399999999997	0.6409199999999999	-0.62566	3211270.0	1776544812.438711	0.0	1.0	-1.0	-1.0	-1.0	-1.0	-1.0	-1.0	-1.0	-1.0	0.0	marker	opened-hand	Open	15	0418
-66801.285	-53538.39	-103049.325	-17944.92	0.0	0.0	0.0	0.0	0.0	0.0	0.0	0.0	0.0	0.0	0.0	0.0	0.0	0.0	146.0	0.0	0.04626453	-0.116027535	1.00243884	2.4263399999999997	0.6409199999999999	-0.62566	3211271.0	1776544812.442029	0.0	1.0	-1.0	-1.0	-1.0	-1.0	-1.0	-1.0	-1.0	-1.0	0.0	marker	opened-hand	Open	15	0418
-66764.925	-53540.46	-103064.67	-17954.954999999998	0.0	0.0	0.0	0.0	0.0	0.0	0.0	0.0	0.0	0.0	0.0	0.0	0.0	0.0	146.0	0.0	0.04626453	-0.116027535	1.00243884	2.4263399999999997	0.6409199999999999	-0.62566	3211272.0	1776544812.442047	0.0	1.0	-1.0	-1.0	-1.0	-1.0	-1.0	-1.0	-1.0	-1.0	0.0	marker	opened-hand	Open	15	0418
-66786.03	-53535.915	-103016.06999999999	-17903.204999999998	0.0	0.0	0.0	0.0	0.0	0.0	0.0	0.0	0.0	0.0	0.0	0.0	0.0	0.0	146.0	0.0	0.04626453	-0.116027535	1.00243884	2.4263399999999997	0.6409199999999999	-0.62566	3211273.0	1776544812.448431	0.0	1.0	-1.0	-1.0	-1.0	-1.0	-1.0	-1.0	-1.0	-1.0	0.0	marker	opened-hand	Open	15	0418
-66841.83	-53545.77	-103021.515	-17905.05	0.0	0.0	0.0	0.0	0.0	0.0	0.0	0.0	0.0	0.0	0.0	0.0	0.0	0.0	146.0	0.0	0.04626453	-0.116027535	1.00243884	2.4263399999999997	0.6409199999999999	-0.62566	3211274.0	1776544812.448457	0.0	1.0	-1.0	-1.0	-1.0	-1.0	-1.0	-1.0	-1.0	-1.0	0.0	marker	opened-hand	Open	15	0418
-66831.66	-53562.915	-103043.83499999999	-17951.445	0.0	0.0	0.0	0.0	0.0	0.0	0.0	0.0	0.0	0.0	0.0	0.0	0.0	0.0	146.0	0.0	0.04626453	-0.116027535	1.00243884	2.4263399999999997	0.6409199999999999	-0.62566	3211275.0	1776544812.449997	0.0	1.0	-1.0	-1.0	-1.0	-1.0	-1.0	-1.0	-1.0	-1.0	0.0	marker	opened-hand	Open	15	0418
-66810.78	-53568.27	-103008.105	-17912.79	0.0	0.0	0.0	0.0	0.0	0.0	0.0	0.0	0.0	0.0	0.0	0.0	0.0	0.0	146.0	0.0	0.04626453	-0.116027535	1.00243884	2.4263399999999997	0.6409199999999999	-0.62566	3211276.0	1776544812.450018	0.0	1.0	-1.0	-1.0	-1.0	-1.0	-1.0	-1.0	-1.0	-1.0	0.0	marker	opened-hand	Open	15	0418
-66864.15	-53575.875	-103062.78	-17958.059999999998	0.0	0.0	0.0	0.0	0.0	0.0	0.0	0.0	0.0	0.0	0.0	0.0	0.0	0.0	146.0	0.0	0.04077138	-0.10607883	1.01025132	2.62472	-0.12208	0.35097999999999996	3211277.0	1776544812.454047	0.0	1.0	-1.0	-1.0	-1.0	-1.0	-1.0	-1.0	-1.0	-1.0	0.0	marker	opened-hand	Open	15	0418
-66860.19	-53581.14	-103121.595	-18007.649999999998	0.0	0.0	0.0	0.0	0.0	0.0	0.0	0.0	0.0	0.0	0.0	0.0	0.0	0.0	146.0	0.0	0.04077138	-0.10607883	1.01025132	2.62472	-0.12208	0.35097999999999996	3211278.0	1776544812.454072	0.0	1.0	-1.0	-1.0	-1.0	-1.0	-1.0	-1.0	-1.0	-1.0	0.0	marker	opened-hand	Open	15	0418
-66829.36499999999	-53569.71	-103030.37999999999	-17927.774999999998	0.0	0.0	0.0	0.0	0.0	0.0	0.0	0.0	0.0	0.0	0.0	0.0	0.0	0.0	146.0	0.0	0.04077138	-0.10607883	1.01025132	2.62472	-0.12208	0.35097999999999996	3211279.0	1776544812.457997	0.0	1.0	-1.0	-1.0	-1.0	-1.0	-1.0	-1.0	-1.0	-1.0	0.0	marker	opened-hand	Open	15	0418
-66911.535	-53560.305	-102994.065	-17894.07	0.0	0.0	0.0	0.0	0.0	0.0	0.0	0.0	0.0	0.0	0.0	0.0	0.0	0.0	146.0	0.0	0.04077138	-0.10607883	1.01025132	2.62472	-0.12208	0.35097999999999996	3211280.0	1776544812.458015	0.0	1.0	-1.0	-1.0	-1.0	-1.0	-1.0	-1.0	-1.0	-1.0	0.0	marker	opened-hand	Open	15	0418
-66852.675	-53569.665	-103068.09	-17961.344999999998	0.0	0.0	0.0	0.0	0.0	0.0	0.0	0.0	0.0	0.0	0.0	0.0	0.0	0.0	146.0	0.0	0.04077138	-0.10607883	1.01025132	2.62472	-0.12208	0.35097999999999996	3211281.0	1776544812.462079	0.0	1.0	-1.0	-1.0	-1.0	-1.0	-1.0	-1.0	-1.0	-1.0	0.0	marker	opened-hand	Open	15	0418
-66819.375	-53582.715	-103067.50499999999	-17948.475	0.0	0.0	0.0	0.0	0.0	0.0	0.0	0.0	0.0	0.0	0.0	0.0	0.0	0.0	146.0	0.0	0.04077138	-0.10607883	1.01025132	2.62472	-0.12208	0.35097999999999996	3211282.0	1776544812.462098	0.0	1.0	-1.0	-1.0	-1.0	-1.0	-1.0	-1.0	-1.0	-1.0	0.0	marker	opened-hand	Open	15	0418
-66826.26	-53586.405	-103037.31	-17907.84	0.0	0.0	0.0	0.0	0.0	0.0	0.0	0.0	0.0	0.0	0.0	0.0	0.0	0.0	146.0	0.0	0.04077138	-0.10607883	1.01025132	2.62472	-0.12208	0.35097999999999996	3211283.0	1776544812.467981	0.0	1.0	-1.0	-1.0	-1.0	-1.0	-1.0	-1.0	-1.0	-1.0	0.0	marker	opened-hand	Open	15	0418
-66618.72	-53582.445	-102824.86499999999	-17728.695	0.0	0.0	0.0	0.0	0.0	0.0	0.0	0.0	0.0	0.0	0.0	0.0	0.0	0.0	146.0	0.0	0.04077138	-0.10607883	1.01025132	2.62472	-0.12208	0.35097999999999996	3211284.0	1776544812.468007	0.0	1.0	-1.0	-1.0	-1.0	-1.0	-1.0	-1.0	-1.0	-1.0	0.0	marker	opened-hand	Open	15	0418
-66491.28	-53584.02	-102696.705	-17583.93	0.0	0.0	0.0	0.0	0.0	0.0	0.0	0.0	0.0	0.0	0.0	0.0	0.0	0.0	146.0	0.0	0.04077138	-0.10607883	1.01025132	2.62472	-0.12208	0.35097999999999996	3211285.0	1776544812.470797	0.0	1.0	-1.0	-1.0	-1.0	-1.0	-1.0	-1.0	-1.0	-1.0	0.0	marker	opened-hand	Open	15	0418
-66669.39	-53605.034999999996	-102923.64	-17819.055	0.0	0.0	0.0	0.0	0.0	0.0	0.0	0.0	0.0	0.0	0.0	0.0	0.0	0.0	146.0	0.0	0.04077138	-0.10607883	1.01025132	2.62472	-0.12208	0.35097999999999996	3211286.0	1776544812.470826	0.0	1.0	-1.0	-1.0	-1.0	-1.0	-1.0	-1.0	-1.0	-1.0	0.0	marker	opened-hand	Open	15	0418
-66860.505	-53622.854999999996	-103112.14499999999	-18031.95	0.0	0.0	0.0	0.0	0.0	0.0	0.0	0.0	0.0	0.0	0.0	0.0	0.0	0.0	146.0	0.0	0.044494515	-0.100524645	1.0173313800000001	1.19028	-0.9613799999999999	0.9919	3211287.0	1776544812.474113	0.0	1.0	-1.0	-1.0	-1.0	-1.0	-1.0	-1.0	-1.0	-1.0	0.0	marker	opened-hand	Open	15	0418
-66904.2	-53625.104999999996	-103103.86499999999	-17974.35	0.0	0.0	0.0	0.0	0.0	0.0	0.0	0.0	0.0	0.0	0.0	0.0	0.0	0.0	146.0	0.0	0.044494515	-0.100524645	1.0173313800000001	1.19028	-0.9613799999999999	0.9919	3211288.0	1776544812.474132	0.0	1.0	-1.0	-1.0	-1.0	-1.0	-1.0	-1.0	-1.0	-1.0	0.0	marker	opened-hand	Open	15	0418
-66916.44	-53636.31	-103134.105	-18008.28	0.0	0.0	0.0	0.0	0.0	0.0	0.0	0.0	0.0	0.0	0.0	0.0	0.0	0.0	146.0	0.0	0.044494515	-0.100524645	1.0173313800000001	1.19028	-0.9613799999999999	0.9919	3211289.0	1776544812.480097	0.0	1.0	-1.0	-1.0	-1.0	-1.0	-1.0	-1.0	-1.0	-1.0	0.0	marker	opened-hand	Open	15	0418
-66858.705	-53649.765	-103092.48	-18005.805	0.0	0.0	0.0	0.0	0.0	0.0	0.0	0.0	0.0	0.0	0.0	0.0	0.0	0.0	146.0	0.0	0.044494515	-0.100524645	1.0173313800000001	1.19028	-0.9613799999999999	0.9919	3211290.0	1776544812.480114	0.0	1.0	-1.0	-1.0	-1.0	-1.0	-1.0	-1.0	-1.0	-1.0	0.0	marker	opened-hand	Open	15	0418
-66780.81	-53667.314999999995	-103029.705	-17929.665	0.0	0.0	0.0	0.0	0.0	0.0	0.0	0.0	0.0	0.0	0.0	0.0	0.0	0.0	146.0	0.0	0.044494515	-0.100524645	1.0173313800000001	1.19028	-0.9613799999999999	0.9919	3211291.0	1776544812.48204	0.0	1.0	-1.0	-1.0	-1.0	-1.0	-1.0	-1.0	-1.0	-1.0	0.0	marker	opened-hand	Open	15	0418
-66786.705	-53680.905	-103031.73	-17891.28	0.0	0.0	0.0	0.0	0.0	0.0	0.0	0.0	0.0	0.0	0.0	0.0	0.0	0.0	146.0	0.0	0.044494515	-0.100524645	1.0173313800000001	1.19028	-0.9613799999999999	0.9919	3211292.0	1776544812.48206	0.0	1.0	-1.0	-1.0	-1.0	-1.0	-1.0	-1.0	-1.0	-1.0	0.0	marker	opened-hand	Open	15	0418
-66784.31999999999	-53686.755	-103043.205	-17918.505	0.0	0.0	0.0	0.0	0.0	0.0	0.0	0.0	0.0	0.0	0.0	0.0	0.0	0.0	146.0	0.0	0.044494515	-0.100524645	1.0173313800000001	1.19028	-0.9613799999999999	0.9919	3211293.0	1776544812.4888	0.0	1.0	-1.0	-1.0	-1.0	-1.0	-1.0	-1.0	-1.0	-1.0	0.0	marker	opened-hand	Open	15	0418
-66766.995	-53679.825	-102995.19	-17864.684999999998	0.0	0.0	0.0	0.0	0.0	0.0	0.0	0.0	0.0	0.0	0.0	0.0	0.0	0.0	146.0	0.0	0.044494515	-0.100524645	1.0173313800000001	1.19028	-0.9613799999999999	0.9919	3211294.0	1776544812.488824	0.0	1.0	-1.0	-1.0	-1.0	-1.0	-1.0	-1.0	-1.0	-1.0	0.0	marker	opened-hand	Open	15	0418
-66731.04	-53667.854999999996	-102958.965	-17839.89	0.0	0.0	0.0	0.0	0.0	0.0	0.0	0.0	0.0	0.0	0.0	0.0	0.0	0.0	146.0	0.0	0.044494515	-0.100524645	1.0173313800000001	1.19028	-0.9613799999999999	0.9919	3211295.0	1776544812.49005	0.0	1.0	-1.0	-1.0	-1.0	-1.0	-1.0	-1.0	-1.0	-1.0	0.0	marker	opened-hand	Open	15	0418
-66773.025	-53672.13	-103031.81999999999	-17929.35	0.0	0.0	0.0	0.0	0.0	0.0	0.0	0.0	0.0	0.0	0.0	0.0	0.0	0.0	146.0	0.0	0.044494515	-0.100524645	1.0173313800000001	1.19028	-0.9613799999999999	0.9919	3211296.0	1776544812.490068	0.0	1.0	-1.0	-1.0	-1.0	-1.0	-1.0	-1.0	-1.0	-1.0	0.0	marker	opened-hand	Open	15	0418
-66747.33	-53678.43	-103015.08	-17932.68	0.0	0.0	0.0	0.0	0.0	0.0	0.0	0.0	0.0	0.0	0.0	0.0	0.0	0.0	146.0	0.0	0.046325565	-0.103454325	1.025388	2.7010199999999998	-2.1669199999999997	0.9156	3211297.0	1776544812.494178	0.0	1.0	-1.0	-1.0	-1.0	-1.0	-1.0	-1.0	-1.0	-1.0	0.0	marker	opened-hand	Open	15	0418
-66723.165	-53670.104999999996	-102964.31999999999	-17861.445	0.0	0.0	0.0	0.0	0.0	0.0	0.0	0.0	0.0	0.0	0.0	0.0	0.0	0.0	146.0	0.0	0.046325565	-0.103454325	1.025388	2.7010199999999998	-2.1669199999999997	0.9156	3211298.0	1776544812.494196	0.0	1.0	-1.0	-1.0	-1.0	-1.0	-1.0	-1.0	-1.0	-1.0	0.0	marker	opened-hand	Open	15	0418
-66803.22	-53675.415	-102972.375	-17858.34	0.0	0.0	0.0	0.0	0.0	0.0	0.0	0.0	0.0	0.0	0.0	0.0	0.0	0.0	146.0	0.0	0.046325565	-0.103454325	1.025388	2.7010199999999998	-2.1669199999999997	0.9156	3211299.0	1776544812.498113	0.0	1.0	-1.0	-1.0	-1.0	-1.0	-1.0	-1.0	-1.0	-1.0	0.0	marker	opened-hand	Open	15	0418
-66806.595	-53675.415	-102953.655	-17846.28	0.0	0.0	0.0	0.0	0.0	0.0	0.0	0.0	0.0	0.0	0.0	0.0	0.0	0.0	146.0	0.0	0.046325565	-0.103454325	1.025388	2.7010199999999998	-2.1669199999999997	0.9156	3211300.0	1776544812.498135	0.0	1.0	-1.0	-1.0	-1.0	-1.0	-1.0	-1.0	-1.0	-1.0	0.0	marker	opened-hand	Open	15	0418
-66881.11499999999	-53679.15	-103102.605	-17990.954999999998	0.0	0.0	0.0	0.0	0.0	0.0	0.0	0.0	0.0	0.0	0.0	0.0	0.0	0.0	146.0	0.0	0.046325565	-0.103454325	1.025388	2.7010199999999998	-2.1669199999999997	0.9156	3211301.0	1776544812.505634	0.0	1.0	-1.0	-1.0	-1.0	-1.0	-1.0	-1.0	-1.0	-1.0	0.0	marker	opened-hand	Open	15	0418
-66885.48	-53676.81	-103174.01999999999	-18048.329999999998	0.0	0.0	0.0	0.0	0.0	0.0	0.0	0.0	0.0	0.0	0.0	0.0	0.0	0.0	146.0	0.0	0.046325565	-0.103454325	1.025388	2.7010199999999998	-2.1669199999999997	0.9156	3211302.0	1776544812.505666	0.0	1.0	-1.0	-1.0	-1.0	-1.0	-1.0	-1.0	-1.0	-1.0	0.0	marker	opened-hand	Open	15	0418
-66804.075	-53676.09	-103087.485	-17964.405	0.0	0.0	0.0	0.0	0.0	0.0	0.0	0.0	0.0	0.0	0.0	0.0	0.0	0.0	146.0	0.0	0.046325565	-0.103454325	1.025388	2.7010199999999998	-2.1669199999999997	0.9156	3211303.0	1776544812.506236	0.0	1.0	-1.0	-1.0	-1.0	-1.0	-1.0	-1.0	-1.0	-1.0	0.0	marker	opened-hand	Open	15	0418
-66734.91	-53675.775	-103028.805	-17913.105	0.0	0.0	0.0	0.0	0.0	0.0	0.0	0.0	0.0	0.0	0.0	0.0	0.0	0.0	146.0	0.0	0.046325565	-0.103454325	1.025388	2.7010199999999998	-2.1669199999999997	0.9156	3211304.0	1776544812.506256	0.0	1.0	-1.0	-1.0	-1.0	-1.0	-1.0	-1.0	-1.0	-1.0	0.0	marker	opened-hand	Open	15	0418
-66894.165	-53670.645	-103129.83	-17997.39	0.0	0.0	0.0	0.0	0.0	0.0	0.0	0.0	0.0	0.0	0.0	0.0	0.0	0.0	146.0	0.0	0.046325565	-0.103454325	1.025388	2.7010199999999998	-2.1669199999999997	0.9156	3211305.0	1776544812.510277	0.0	1.0	-1.0	-1.0	-1.0	-1.0	-1.0	-1.0	-1.0	-1.0	0.0	marker	opened-hand	Open	15	0418
-66860.145	-53657.505	-102991.95	-17880.075	0.0	0.0	0.0	0.0	0.0	0.0	0.0	0.0	0.0	0.0	0.0	0.0	0.0	0.0	146.0	0.0	0.046325565	-0.103454325	1.025388	2.7010199999999998	-2.1669199999999997	0.9156	3211306.0	1776544812.510294	0.0	1.0	-1.0	-1.0	-1.0	-1.0	-1.0	-1.0	-1.0	-1.0	0.0	marker	opened-hand	Open	15	0418
-66744.405	-53643.104999999996	-102904.245	-17788.364999999998	0.0	0.0	0.0	0.0	0.0	0.0	0.0	0.0	0.0	0.0	0.0	0.0	0.0	0.0	146.0	0.0	0.050720085	-0.108215055	1.019101395	4.24228	-1.8159399999999999	0.42728	3211307.0	1776544812.516707	0.0	1.0	-1.0	-1.0	-1.0	-1.0	-1.0	-1.0	-1.0	-1.0	0.0	marker	opened-hand	Open	15	0418
-66833.595	-53659.89	-103039.65	-17913.105	0.0	0.0	0.0	0.0	0.0	0.0	0.0	0.0	0.0	0.0	0.0	0.0	0.0	0.0	146.0	0.0	0.050720085	-0.108215055	1.019101395	4.24228	-1.8159399999999999	0.42728	3211308.0	1776544812.516734	0.0	1.0	-1.0	-1.0	-1.0	-1.0	-1.0	-1.0	-1.0	-1.0	0.0	marker	opened-hand	Open	15	0418
-66869.73	-53669.475	-103105.08	-17970.165	0.0	0.0	0.0	0.0	0.0	0.0	0.0	0.0	0.0	0.0	0.0	0.0	0.0	0.0	146.0	0.0	0.050720085	-0.108215055	1.019101395	4.24228	-1.8159399999999999	0.42728	3211309.0	1776544812.518282	0.0	1.0	-1.0	-1.0	-1.0	-1.0	-1.0	-1.0	-1.0	-1.0	0.0	marker	opened-hand	Open	15	0418
-66820.995	-53666.549999999996	-103000.31999999999	-17891.505	0.0	0.0	0.0	0.0	0.0	0.0	0.0	0.0	0.0	0.0	0.0	0.0	0.0	0.0	146.0	0.0	0.050720085	-0.108215055	1.019101395	4.24228	-1.8159399999999999	0.42728	3211310.0	1776544812.518303	0.0	1.0	-1.0	-1.0	-1.0	-1.0	-1.0	-1.0	-1.0	-1.0	0.0	marker	opened-hand	Open	15	0418
-66745.305	-53664.975	-102909.19499999999	-17796.735	0.0	0.0	0.0	0.0	0.0	0.0	0.0	0.0	0.0	0.0	0.0	0.0	0.0	0.0	146.0	0.0	0.050720085	-0.108215055	1.019101395	4.24228	-1.8159399999999999	0.42728	3211311.0	1776544812.522277	0.0	1.0	-1.0	-1.0	-1.0	-1.0	-1.0	-1.0	-1.0	-1.0	0.0	marker	opened-hand	Open	15	0418
-66713.625	-53683.02	-102957.56999999999	-17834.445	0.0	0.0	0.0	0.0	0.0	0.0	0.0	0.0	0.0	0.0	0.0	0.0	0.0	0.0	146.0	0.0	0.050720085	-0.108215055	1.019101395	4.24228	-1.8159399999999999	0.42728	3211312.0	1776544812.522295	0.0	1.0	-1.0	-1.0	-1.0	-1.0	-1.0	-1.0	-1.0	-1.0	0.0	marker	opened-hand	Open	15	0418
-66860.595	-53698.229999999996	-103058.28	-17985.105	0.0	0.0	0.0	0.0	0.0	0.0	0.0	0.0	0.0	0.0	0.0	0.0	0.0	0.0	146.0	0.0	0.050720085	-0.108215055	1.019101395	4.24228	-1.8159399999999999	0.42728	3211313.0	1776544812.529703	0.0	1.0	-1.0	-1.0	-1.0	-1.0	-1.0	-1.0	-1.0	-1.0	0.0	marker	opened-hand	Open	15	0418
-66931.33499999999	-53707.049999999996	-103066.01999999999	-17983.035	0.0	0.0	0.0	0.0	0.0	0.0	0.0	0.0	0.0	0.0	0.0	0.0	0.0	0.0	146.0	0.0	0.050720085	-0.108215055	1.019101395	4.24228	-1.8159399999999999	0.42728	3211314.0	1776544812.529743	0.0	1.0	-1.0	-1.0	-1.0	-1.0	-1.0	-1.0	-1.0	-1.0	0.0	marker	opened-hand	Open	15	0418
-66857.84999999999	-53719.965	-103078.98	-17942.985	0.0	0.0	0.0	0.0	0.0	0.0	0.0	0.0	0.0	0.0	0.0	0.0	0.0	0.0	146.0	0.0	0.050720085	-0.108215055	1.019101395	4.24228	-1.8159399999999999	0.42728	3211315.0	1776544812.530291	0.0	1.0	-1.0	-1.0	-1.0	-1.0	-1.0	-1.0	-1.0	-1.0	0.0	marker	opened-hand	Open	15	0418
-66725.19	-53720.46	-102974.715	-17874.27	0.0	0.0	0.0	0.0	0.0	0.0	0.0	0.0	0.0	0.0	0.0	0.0	0.0	0.0	146.0	0.0	0.050720085	-0.108215055	1.019101395	4.24228	-1.8159399999999999	0.42728	3211316.0	1776544812.530305	0.0	1.0	-1.0	-1.0	-1.0	-1.0	-1.0	-1.0	-1.0	-1.0	0.0	marker	opened-hand	Open	15	0418
-66587.44499999999	-53714.25	-102883.23	-17765.73	0.0	0.0	0.0	0.0	0.0	0.0	0.0	0.0	0.0	0.0	0.0	0.0	0.0	0.0	146.0	0.0	0.05541978	-0.10790988	1.01049546	3.54032	-1.2971	0.35097999999999996	3211317.0	1776544812.535366	0.0	1.0	-1.0	-1.0	-1.0	-1.0	-1.0	-1.0	-1.0	-1.0	0.0	marker	opened-hand	Open	15	0418
-66668.48999999999	-53722.259999999995	-102989.97	-17853.93	0.0	0.0	0.0	0.0	0.0	0.0	0.0	0.0	0.0	0.0	0.0	0.0	0.0	0.0	146.0	0.0	0.05541978	-0.10790988	1.01049546	3.54032	-1.2971	0.35097999999999996	3211318.0	1776544812.535392	0.0	1.0	-1.0	-1.0	-1.0	-1.0	-1.0	-1.0	-1.0	-1.0	0.0	marker	opened-hand	Open	15	0418
-66856.72499999999	-53736.57	-103063.455	-17948.204999999998	0.0	0.0	0.0	0.0	0.0	0.0	0.0	0.0	0.0	0.0	0.0	0.0	0.0	0.0	146.0	0.0	0.05541978	-0.10790988	1.01049546	3.54032	-1.2971	0.35097999999999996	3211319.0	1776544812.539702	0.0	1.0	-1.0	-1.0	-1.0	-1.0	-1.0	-1.0	-1.0	-1.0	0.0	marker	opened-hand	Open	15	0418
-66837.19499999999	-53729.865	-103040.955	-17949.239999999998	0.0	0.0	0.0	0.0	0.0	0.0	0.0	0.0	0.0	0.0	0.0	0.0	0.0	0.0	146.0	0.0	0.05541978	-0.10790988	1.01049546	3.54032	-1.2971	0.35097999999999996	3211320.0	1776544812.539726	0.0	1.0	-1.0	-1.0	-1.0	-1.0	-1.0	-1.0	-1.0	-1.0	0.0	marker	opened-hand	Open	15	0418
-66859.92	-53723.025	-103096.08	-17980.92	0.0	0.0	0.0	0.0	0.0	0.0	0.0	0.0	0.0	0.0	0.0	0.0	0.0	0.0	146.0	0.0	0.05541978	-0.10790988	1.01049546	3.54032	-1.2971	0.35097999999999996	3211321.0	1776544812.54339	0.0	1.0	-1.0	-1.0	-1.0	-1.0	-1.0	-1.0	-1.0	-1.0	0.0	marker	opened-hand	Open	15	0418
-66840.97499999999	-53720.549999999996	-103061.15999999999	-17946.18	0.0	0.0	0.0	0.0	0.0	0.0	0.0	0.0	0.0	0.0	0.0	0.0	0.0	0.0	146.0	0.0	0.05541978	-0.10790988	1.01049546	3.54032	-1.2971	0.35097999999999996	3211322.0	1776544812.543406	0.0	1.0	-1.0	-1.0	-1.0	-1.0	-1.0	-1.0	-1.0	-1.0	0.0	marker	opened-hand	Open	15	0418
-66819.285	-53718.615	-103012.965	-17923.454999999998	0.0	0.0	0.0	0.0	0.0	0.0	0.0	0.0	0.0	0.0	0.0	0.0	0.0	0.0	146.0	0.0	0.05541978	-0.10790988	1.01049546	3.54032	-1.2971	0.35097999999999996	3211323.0	1776544812.546386	0.0	1.0	-1.0	-1.0	-1.0	-1.0	-1.0	-1.0	-1.0	-1.0	0.0	marker	opened-hand	Open	15	0418
-66782.83499999999	-53711.28	-102956.67	-17865.855	0.0	0.0	0.0	0.0	0.0	0.0	0.0	0.0	0.0	0.0	0.0	0.0	0.0	0.0	146.0	0.0	0.05541978	-0.10790988	1.01049546	3.54032	-1.2971	0.35097999999999996	3211324.0	1776544812.5464	0.0	1.0	-1.0	-1.0	-1.0	-1.0	-1.0	-1.0	-1.0	-1.0	0.0	marker	opened-hand	Open	15	0418
-66794.535	-53708.445	-102980.25	-17852.309999999998	0.0	0.0	0.0	0.0	0.0	0.0	0.0	0.0	0.0	0.0	0.0	0.0	0.0	0.0	146.0	0.0	0.05541978	-0.10790988	1.01049546	3.54032	-1.2971	0.35097999999999996	3211325.0	1776544812.550455	0.0	1.0	-1.0	-1.0	-1.0	-1.0	-1.0	-1.0	-1.0	-1.0	0.0	marker	opened-hand	Open	15	0418
-66897.63	-53713.034999999996	-103088.7	-17959.995	0.0	0.0	0.0	0.0	0.0	0.0	0.0	0.0	0.0	0.0	0.0	0.0	0.0	0.0	146.0	0.0	0.05541978	-0.10790988	1.01049546	3.54032	-1.2971	0.35097999999999996	3211326.0	1776544812.550481	0.0	1.0	-1.0	-1.0	-1.0	-1.0	-1.0	-1.0	-1.0	-1.0	0.0	marker	opened-hand	Open	15	0418
-66827.565	-53703.18	-103048.29	-17947.89	0.0	0.0	0.0	0.0	0.0	0.0	0.0	0.0	0.0	0.0	0.0	0.0	0.0	0.0	146.0	0.0	0.047790405	-0.1037595	1.001767455	2.2127	0.0	0.6867	3211327.0	1776544812.554434	0.0	1.0	-1.0	-1.0	-1.0	-1.0	-1.0	-1.0	-1.0	-1.0	0.0	marker	opened-hand	Open	15	0418
-66769.875	-53696.295	-103010.355	-17903.204999999998	0.0	0.0	0.0	0.0	0.0	0.0	0.0	0.0	0.0	0.0	0.0	0.0	0.0	0.0	146.0	0.0	0.047790405	-0.1037595	1.001767455	2.2127	0.0	0.6867	3211328.0	1776544812.554468	0.0	1.0	-1.0	-1.0	-1.0	-1.0	-1.0	-1.0	-1.0	-1.0	0.0	marker	opened-hand	Open	15	0418
-66789.18	-53702.235	-103015.39499999999	-17894.43	0.0	0.0	0.0	0.0	0.0	0.0	0.0	0.0	0.0	0.0	0.0	0.0	0.0	0.0	146.0	0.0	0.047790405	-0.1037595	1.001767455	2.2127	0.0	0.6867	3211329.0	1776544812.558387	0.0	1.0	-1.0	-1.0	-1.0	-1.0	-1.0	-1.0	-1.0	-1.0	0.0	marker	opened-hand	Open	15	0418
-66777.165	-53702.685	-103047.885	-17931.69	0.0	0.0	0.0	0.0	0.0	0.0	0.0	0.0	0.0	0.0	0.0	0.0	0.0	0.0	146.0	0.0	0.047790405	-0.1037595	1.001767455	2.2127	0.0	0.6867	3211330.0	1776544812.558404	0.0	1.0	-1.0	-1.0	-1.0	-1.0	-1.0	-1.0	-1.0	-1.0	0.0	marker	opened-hand	Open	15	0418
-66674.47499999999	-53692.92	-102935.385	-17832.645	0.0	0.0	0.0	0.0	0.0	0.0	0.0	0.0	0.0	0.0	0.0	0.0	0.0	0.0	146.0	0.0	0.047790405	-0.1037595	1.001767455	2.2127	0.0	0.6867	3211331.0	1776544812.562396	0.0	1.0	-1.0	-1.0	-1.0	-1.0	-1.0	-1.0	-1.0	-1.0	0.0	marker	opened-hand	Open	15	0418
-66605.31	-53678.43	-102839.44499999999	-17735.715	0.0	0.0	0.0	0.0	0.0	0.0	0.0	0.0	0.0	0.0	0.0	0.0	0.0	0.0	146.0	0.0	0.047790405	-0.1037595	1.001767455	2.2127	0.0	0.6867	3211332.0	1776544812.562411	0.0	1.0	-1.0	-1.0	-1.0	-1.0	-1.0	-1.0	-1.0	-1.0	0.0	marker	opened-hand	Open	15	0418
-66768.795	-53689.229999999996	-102963.64499999999	-17838.27	0.0	0.0	0.0	0.0	0.0	0.0	0.0	0.0	0.0	0.0	0.0	0.0	0.0	0.0	146.0	0.0	0.047790405	-0.1037595	1.001767455	2.2127	0.0	0.6867	3211333.0	1776544812.566594	0.0	1.0	-1.0	-1.0	-1.0	-1.0	-1.0	-1.0	-1.0	-1.0	0.0	marker	opened-hand	Open	15	0418
-66879.765	-53696.34	-103049.415	-17931.195	0.0	0.0	0.0	0.0	0.0	0.0	0.0	0.0	0.0	0.0	0.0	0.0	0.0	0.0	146.0	0.0	0.047790405	-0.1037595	1.001767455	2.2127	0.0	0.6867	3211334.0	1776544812.566614	0.0	1.0	-1.0	-1.0	-1.0	-1.0	-1.0	-1.0	-1.0	-1.0	0.0	marker	opened-hand	Open	15	0418
-66869.81999999999	-53703.765	-103067.50499999999	-17947.53	0.0	0.0	0.0	0.0	0.0	0.0	0.0	0.0	0.0	0.0	0.0	0.0	0.0	0.0	146.0	0.0	0.047790405	-0.1037595	1.001767455	2.2127	0.0	0.6867	3211335.0	1776544812.570424	0.0	1.0	-1.0	-1.0	-1.0	-1.0	-1.0	-1.0	-1.0	-1.0	0.0	marker	opened-hand	Open	15	0418
-66876.56999999999	-53708.04	-103079.47499999999	-17948.7	0.0	0.0	0.0	0.0	0.0	0.0	0.0	0.0	0.0	0.0	0.0	0.0	0.0	0.0	146.0	0.0	0.047790405	-0.1037595	1.001767455	2.2127	0.0	0.6867	3211336.0	1776544812.570454	0.0	1.0	-1.0	-1.0	-1.0	-1.0	-1.0	-1.0	-1.0	-1.0	0.0	marker	opened-hand	Open	15	0418
-66912.795	-53719.829999999994	-103128.03	-18012.329999999998	0.0	0.0	0.0	0.0	0.0	0.0	0.0	0.0	0.0	0.0	0.0	0.0	0.0	0.0	146.0	0.0	0.047912475	-0.10217259000000001	0.999081915	1.4191799999999999	1.00716	1.46496	3211337.0	1776544812.576478	0.0	1.0	-1.0	-1.0	-1.0	-1.0	-1.0	-1.0	-1.0	-1.0	0.0	marker	opened-hand	Open	15	0418
-66789.405	-53707.725	-102985.78499999999	-17880.39	0.0	0.0	0.0	0.0	0.0	0.0	0.0	0.0	0.0	0.0	0.0	0.0	0.0	0.0	146.0	0.0	0.047912475	-0.10217259000000001	0.999081915	1.4191799999999999	1.00716	1.46496	3211338.0	1776544812.576494	0.0	1.0	-1.0	-1.0	-1.0	-1.0	-1.0	-1.0	-1.0	-1.0	0.0	marker	opened-hand	Open	15	0418
-66743.685	-53624.655	-102899.25	-17800.11	0.0	0.0	0.0	0.0	0.0	0.0	0.0	0.0	0.0	0.0	0.0	0.0	0.0	0.0	146.0	0.0	0.047912475	-0.10217259000000001	0.999081915	1.4191799999999999	1.00716	1.46496	3211339.0	1776544812.579609	0.0	1.0	-1.0	-1.0	-1.0	-1.0	-1.0	-1.0	-1.0	-1.0	0.0	marker	opened-hand	Open	15	0418
-66761.325	-53565.795	-103006.575	-17902.305	0.0	0.0	0.0	0.0	0.0	0.0	0.0	0.0	0.0	0.0	0.0	0.0	0.0	0.0	146.0	0.0	0.047912475	-0.10217259000000001	0.999081915	1.4191799999999999	1.00716	1.46496	3211340.0	1776544812.579622	0.0	1.0	-1.0	-1.0	-1.0	-1.0	-1.0	-1.0	-1.0	-1.0	0.0	marker	opened-hand	Open	15	0418
-66820.095	-53576.595	-103095.81	-17980.02	0.0	0.0	0.0	0.0	0.0	0.0	0.0	0.0	0.0	0.0	0.0	0.0	0.0	0.0	146.0	0.0	0.047912475	-0.10217259000000001	0.999081915	1.4191799999999999	1.00716	1.46496	3211341.0	1776544812.582745	0.0	1.0	-1.0	-1.0	-1.0	-1.0	-1.0	-1.0	-1.0	-1.0	0.0	marker	opened-hand	Open	15	0418
-66900.95999999999	-53589.15	-103107.915	-17980.065	0.0	0.0	0.0	0.0	0.0	0.0	0.0	0.0	0.0	0.0	0.0	0.0	0.0	0.0	146.0	0.0	0.047912475	-0.10217259000000001	0.999081915	1.4191799999999999	1.00716	1.46496	3211342.0	1776544812.582764	0.0	1.0	-1.0	-1.0	-1.0	-1.0	-1.0	-1.0	-1.0	-1.0	0.0	marker	opened-hand	Open	15	0418
-66927.69	-53585.189999999995	-103115.51999999999	-17979.524999999998	0.0	0.0	0.0	0.0	0.0	0.0	0.0	0.0	0.0	0.0	0.0	0.0	0.0	0.0	146.0	0.0	0.047912475	-0.10217259000000001	0.999081915	1.4191799999999999	1.00716	1.46496	3211343.0	1776544812.586484	0.0	1.0	-1.0	-1.0	-1.0	-1.0	-1.0	-1.0	-1.0	-1.0	0.0	marker	opened-hand	Open	15	0418
-66860.19	-53571.15	-103081.05	-17968.59	0.0	0.0	0.0	0.0	0.0	0.0	0.0	0.0	0.0	0.0	0.0	0.0	0.0	0.0	146.0	0.0	0.047912475	-0.10217259000000001	0.999081915	1.4191799999999999	1.00716	1.46496	3211344.0	1776544812.586504	0.0	1.0	-1.0	-1.0	-1.0	-1.0	-1.0	-1.0	-1.0	-1.0	0.0	marker	opened-hand	Open	15	0418
-66798.18	-53562.735	-103078.89	-17994.735	0.0	0.0	0.0	0.0	0.0	0.0	0.0	0.0	0.0	0.0	0.0	0.0	0.0	0.0	146.0	0.0	0.047912475	-0.10217259000000001	0.999081915	1.4191799999999999	1.00716	1.46496	3211345.0	1776544812.590458	0.0	1.0	-1.0	-1.0	-1.0	-1.0	-1.0	-1.0	-1.0	-1.0	0.0	marker	opened-hand	Open	15	0418
-66680.955	-53544.42	-102983.625	-17893.44	0.0	0.0	0.0	0.0	0.0	0.0	0.0	0.0	0.0	0.0	0.0	0.0	0.0	0.0	146.0	0.0	0.047912475	-0.10217259000000001	0.999081915	1.4191799999999999	1.00716	1.46496	3211346.0	1776544812.590478	0.0	1.0	-1.0	-1.0	-1.0	-1.0	-1.0	-1.0	-1.0	-1.0	0.0	marker	opened-hand	Open	15	0418
-66654.0	-53521.965	-102944.25	-17814.105	0.0	0.0	0.0	0.0	0.0	0.0	0.0	0.0	0.0	0.0	0.0	0.0	0.0	0.0	146.0	0.0	0.048400755000000004	-0.108825405	1.00243884	0.36624	1.32762	0.5341	3211347.0	1776544812.594469	0.0	1.0	-1.0	-1.0	-1.0	-1.0	-1.0	-1.0	-1.0	-1.0	0.0	marker	opened-hand	Open	15	0418
-66847.635	-53517.96	-103018.36499999999	-17893.844999999998	0.0	0.0	0.0	0.0	0.0	0.0	0.0	0.0	0.0	0.0	0.0	0.0	0.0	0.0	146.0	0.0	0.048400755000000004	-0.108825405	1.00243884	0.36624	1.32762	0.5341	3211348.0	1776544812.594492	0.0	1.0	-1.0	-1.0	-1.0	-1.0	-1.0	-1.0	-1.0	-1.0	0.0	marker	opened-hand	Open	15	0418
-66872.97	-53528.67	-103043.83499999999	-17980.965	0.0	0.0	0.0	0.0	0.0	0.0	0.0	0.0	0.0	0.0	0.0	0.0	0.0	0.0	146.0	0.0	0.048400755000000004	-0.108825405	1.00243884	0.36624	1.32762	0.5341	3211349.0	1776544812.598762	0.0	1.0	-1.0	-1.0	-1.0	-1.0	-1.0	-1.0	-1.0	-1.0	0.0	marker	opened-hand	Open	15	0418
-66783.105	-53526.6	-102937.635	-17884.71	0.0	0.0	0.0	0.0	0.0	0.0	0.0	0.0	0.0	0.0	0.0	0.0	0.0	0.0	146.0	0.0	0.048400755000000004	-0.108825405	1.00243884	0.36624	1.32762	0.5341	3211350.0	1776544812.598788	0.0	1.0	-1.0	-1.0	-1.0	-1.0	-1.0	-1.0	-1.0	-1.0	0.0	marker	opened-hand	Open	15	0418
-66701.745	-53520.255	-102820.455	-17729.594999999998	0.0	0.0	0.0	0.0	0.0	0.0	0.0	0.0	0.0	0.0	0.0	0.0	0.0	0.0	146.0	0.0	0.048400755000000004	-0.108825405	1.00243884	0.36624	1.32762	0.5341	3211351.0	1776544812.602537	0.0	1.0	-1.0	-1.0	-1.0	-1.0	-1.0	-1.0	-1.0	-1.0	0.0	marker	opened-hand	Open	15	0418
-66840.255	-53531.729999999996	-103056.61499999999	-17925.3	0.0	0.0	0.0	0.0	0.0	0.0	0.0	0.0	0.0	0.0	0.0	0.0	0.0	0.0	146.0	0.0	0.048400755000000004	-0.108825405	1.00243884	0.36624	1.32762	0.5341	3211352.0	1776544812.602557	0.0	1.0	-1.0	-1.0	-1.0	-1.0	-1.0	-1.0	-1.0	-1.0	0.0	marker	opened-hand	Open	15	0418
-66825.135	-53527.545	-103086.22499999999	-17960.219999999998	0.0	0.0	0.0	0.0	0.0	0.0	0.0	0.0	0.0	0.0	0.0	0.0	0.0	0.0	146.0	0.0	0.048400755000000004	-0.108825405	1.00243884	0.36624	1.32762	0.5341	3211353.0	1776544812.608421	0.0	1.0	-1.0	-1.0	-1.0	-1.0	-1.0	-1.0	-1.0	-1.0	0.0	marker	opened-hand	Open	15	0418
-66738.78	-53511.84	-102982.635	-17832.329999999998	0.0	0.0	0.0	0.0	0.0	0.0	0.0	0.0	0.0	0.0	0.0	0.0	0.0	0.0	146.0	0.0	0.048400755000000004	-0.108825405	1.00243884	0.36624	1.32762	0.5341	3211354.0	1776544812.60844	0.0	1.0	-1.0	-1.0	-1.0	-1.0	-1.0	-1.0	-1.0	-1.0	0.0	marker	opened-hand	Open	15	0418
-66744.315	-53515.619999999995	-102973.5	-17837.594999999998	0.0	0.0	0.0	0.0	0.0	0.0	0.0	0.0	0.0	0.0	0.0	0.0	0.0	0.0	146.0	0.0	0.048400755000000004	-0.108825405	1.00243884	0.36624	1.32762	0.5341	3211355.0	1776544812.610523	0.0	1.0	-1.0	-1.0	-1.0	-1.0	-1.0	-1.0	-1.0	-1.0	0.0	marker	opened-hand	Open	15	0418
-66757.77	-53514.09	-102913.37999999999	-17813.88	0.0	0.0	0.0	0.0	0.0	0.0	0.0	0.0	0.0	0.0	0.0	0.0	0.0	0.0	146.0	0.0	0.048400755000000004	-0.108825405	1.00243884	0.36624	1.32762	0.5341	3211356.0	1776544812.61054	0.0	1.0	-1.0	-1.0	-1.0	-1.0	-1.0	-1.0	-1.0	-1.0	0.0	marker	opened-hand	Open	15	0418
-66751.875	-53531.46	-102876.25499999999	-17760.96	0.0	0.0	0.0	0.0	0.0	0.0	0.0	0.0	0.0	0.0	0.0	0.0	0.0	0.0	146.0	0.0	0.045959355	-0.11291475000000001	1.013119965	0.57988	0.56462	0.16785999999999998	3211357.0	1776544812.614656	0.0	1.0	-1.0	-1.0	-1.0	-1.0	-1.0	-1.0	-1.0	-1.0	0.0	marker	opened-hand	Open	15	0418
-66782.43	-53576.64	-102986.50499999999	-17883.18	0.0	0.0	0.0	0.0	0.0	0.0	0.0	0.0	0.0	0.0	0.0	0.0	0.0	0.0	146.0	0.0	0.045959355	-0.11291475000000001	1.013119965	0.57988	0.56462	0.16785999999999998	3211358.0	1776544812.614707	0.0	1.0	-1.0	-1.0	-1.0	-1.0	-1.0	-1.0	-1.0	-1.0	0.0	marker	opened-hand	Open	15	0418
-66785.48999999999	-53587.619999999995	-102980.11499999999	-17874.719999999998	0.0	0.0	0.0	0.0	0.0	0.0	0.0	0.0	0.0	0.0	0.0	0.0	0.0	0.0	146.0	0.0	0.045959355	-0.11291475000000001	1.013119965	0.57988	0.56462	0.16785999999999998	3211359.0	1776544812.618565	0.0	1.0	-1.0	-1.0	-1.0	-1.0	-1.0	-1.0	-1.0	-1.0	0.0	marker	opened-hand	Open	15	0418
-66792.645	-53595.81	-103023.045	-17916.344999999998	0.0	0.0	0.0	0.0	0.0	0.0	0.0	0.0	0.0	0.0	0.0	0.0	0.0	0.0	146.0	0.0	0.045959355	-0.11291475000000001	1.013119965	0.57988	0.56462	0.16785999999999998	3211360.0	1776544812.618581	0.0	1.0	-1.0	-1.0	-1.0	-1.0	-1.0	-1.0	-1.0	-1.0	0.0	marker	opened-hand	Open	15	0418
-66857.67	-53590.365	-103135.905	-18011.969999999998	0.0	0.0	0.0	0.0	0.0	0.0	0.0	0.0	0.0	0.0	0.0	0.0	0.0	0.0	146.0	0.0	0.045959355	-0.11291475000000001	1.013119965	0.57988	0.56462	0.16785999999999998	3211361.0	1776544812.622544	0.0	1.0	-1.0	-1.0	-1.0	-1.0	-1.0	-1.0	-1.0	-1.0	0.0	marker	opened-hand	Open	15	0418
-66948.48	-53582.13	-103226.12999999999	-18072.135	0.0	0.0	0.0	0.0	0.0	0.0	0.0	0.0	0.0	0.0	0.0	0.0	0.0	0.0	146.0	0.0	0.045959355	-0.11291475000000001	1.013119965	0.57988	0.56462	0.16785999999999998	3211362.0	1776544812.622566	0.0	1.0	-1.0	-1.0	-1.0	-1.0	-1.0	-1.0	-1.0	-1.0	0.0	marker	opened-hand	Open	15	0418
-66894.84	-53565.57	-103166.90999999999	-17996.985	0.0	0.0	0.0	0.0	0.0	0.0	0.0	0.0	0.0	0.0	0.0	0.0	0.0	0.0	146.0	0.0	0.045959355	-0.11291475000000001	1.013119965	0.57988	0.56462	0.16785999999999998	3211363.0	1776544812.626581	0.0	1.0	-1.0	-1.0	-1.0	-1.0	-1.0	-1.0	-1.0	-1.0	0.0	marker	opened-hand	Open	15	0418
-66854.34	-53554.185	-103042.8	-17900.46	0.0	0.0	0.0	0.0	0.0	0.0	0.0	0.0	0.0	0.0	0.0	0.0	0.0	0.0	146.0	0.0	0.045959355	-0.11291475000000001	1.013119965	0.57988	0.56462	0.16785999999999998	3211364.0	1776544812.626621	0.0	1.0	-1.0	-1.0	-1.0	-1.0	-1.0	-1.0	-1.0	-1.0	0.0	marker	opened-hand	Open	15	0418
-66739.05	-53554.68	-102917.205	-17815.005	0.0	0.0	0.0	0.0	0.0	0.0	0.0	0.0	0.0	0.0	0.0	0.0	0.0	0.0	146.0	0.0	0.045959355	-0.11291475000000001	1.013119965	0.57988	0.56462	0.16785999999999998	3211365.0	1776544812.630672	0.0	1.0	-1.0	-1.0	-1.0	-1.0	-1.0	-1.0	-1.0	-1.0	0.0	marker	opened-hand	Open	15	0418
-66740.13	-53562.375	-102961.62	-17904.42	0.0	0.0	0.0	0.0	0.0	0.0	0.0	0.0	0.0	0.0	0.0	0.0	0.0	0.0	146.0	0.0	0.045959355	-0.11291475000000001	1.013119965	0.57988	0.56462	0.16785999999999998	3211366.0	1776544812.630694	0.0	1.0	-1.0	-1.0	-1.0	-1.0	-1.0	-1.0	-1.0	-1.0	0.0	marker	opened-hand	Open	15	0418
-66757.095	-53568.18	-102960.135	-17878.68	0.0	0.0	0.0	0.0	0.0	0.0	0.0	0.0	0.0	0.0	0.0	0.0	0.0	0.0	146.0	0.0	0.045349005	-0.11669892	1.01879622	3.15882	-0.32045999999999997	-0.19838	3211367.0	1776544812.637306	0.0	1.0	-1.0	-1.0	-1.0	-1.0	-1.0	-1.0	-1.0	-1.0	0.0	marker	opened-hand	Open	15	0418
-66834.94499999999	-53569.799999999996	-103013.64	-17902.98	0.0	0.0	0.0	0.0	0.0	0.0	0.0	0.0	0.0	0.0	0.0	0.0	0.0	0.0	146.0	0.0	0.045349005	-0.11669892	1.01879622	3.15882	-0.32045999999999997	-0.19838	3211368.0	1776544812.637335	0.0	1.0	-1.0	-1.0	-1.0	-1.0	-1.0	-1.0	-1.0	-1.0	0.0	marker	opened-hand	Open	15	0418
-66903.345	-53564.49	-103106.655	-17990.91	0.0	0.0	0.0	0.0	0.0	0.0	0.0	0.0	0.0	0.0	0.0	0.0	0.0	0.0	146.0	0.0	0.045349005	-0.11669892	1.01879622	3.15882	-0.32045999999999997	-0.19838	3211369.0	1776544812.638623	0.0	1.0	-1.0	-1.0	-1.0	-1.0	-1.0	-1.0	-1.0	-1.0	0.0	marker	opened-hand	Open	15	0418
-66790.17	-53551.755	-103066.2	-17953.2	0.0	0.0	0.0	0.0	0.0	0.0	0.0	0.0	0.0	0.0	0.0	0.0	0.0	0.0	146.0	0.0	0.045349005	-0.11669892	1.01879622	3.15882	-0.32045999999999997	-0.19838	3211370.0	1776544812.638645	0.0	1.0	-1.0	-1.0	-1.0	-1.0	-1.0	-1.0	-1.0	-1.0	0.0	marker	opened-hand	Open	15	0418
-66794.13	-53542.079999999994	-103028.4	-17923.274999999998	0.0	0.0	0.0	0.0	0.0	0.0	0.0	0.0	0.0	0.0	0.0	0.0	0.0	0.0	146.0	0.0	0.045349005	-0.11669892	1.01879622	3.15882	-0.32045999999999997	-0.19838	3211371.0	1776544812.642644	0.0	1.0	-1.0	-1.0	-1.0	-1.0	-1.0	-1.0	-1.0	-1.0	0.0	marker	opened-hand	Open	15	0418
-66808.755	-53533.079999999994	-102926.79	-17823.105	0.0	0.0	0.0	0.0	0.0	0.0	0.0	0.0	0.0	0.0	0.0	0.0	0.0	0.0	146.0	0.0	0.045349005	-0.11669892	1.01879622	3.15882	-0.32045999999999997	-0.19838	3211372.0	1776544812.642662	0.0	1.0	-1.0	-1.0	-1.0	-1.0	-1.0	-1.0	-1.0	-1.0	0.0	marker	opened-hand	Open	15	0418
-66769.38	-53528.354999999996	-102957.39	-17861.445	0.0	0.0	0.0	0.0	0.0	0.0	0.0	0.0	0.0	0.0	0.0	0.0	0.0	0.0	146.0	0.0	0.045349005	-0.11669892	1.01879622	3.15882	-0.32045999999999997	-0.19838	3211373.0	1776544812.647094	0.0	1.0	-1.0	-1.0	-1.0	-1.0	-1.0	-1.0	-1.0	-1.0	0.0	marker	opened-hand	Open	15	0418
-66869.86499999999	-53544.869999999995	-103102.37999999999	-17981.64	0.0	0.0	0.0	0.0	0.0	0.0	0.0	0.0	0.0	0.0	0.0	0.0	0.0	0.0	146.0	0.0	0.045349005	-0.11669892	1.01879622	3.15882	-0.32045999999999997	-0.19838	3211374.0	1776544812.647109	0.0	1.0	-1.0	-1.0	-1.0	-1.0	-1.0	-1.0	-1.0	-1.0	0.0	marker	opened-hand	Open	15	0418
-66903.56999999999	-53549.46	-103104.81	-17963.594999999998	0.0	0.0	0.0	0.0	0.0	0.0	0.0	0.0	0.0	0.0	0.0	0.0	0.0	0.0	146.0	0.0	0.045349005	-0.11669892	1.01879622	3.15882	-0.32045999999999997	-0.19838	3211375.0	1776544812.650707	0.0	1.0	-1.0	-1.0	-1.0	-1.0	-1.0	-1.0	-1.0	-1.0	0.0	marker	opened-hand	Open	15	0418
-66905.955	-53539.604999999996	-103094.09999999999	-17968.454999999998	0.0	0.0	0.0	0.0	0.0	0.0	0.0	0.0	0.0	0.0	0.0	0.0	0.0	0.0	146.0	0.0	0.045349005	-0.11669892	1.01879622	3.15882	-0.32045999999999997	-0.19838	3211376.0	1776544812.650731	0.0	1.0	-1.0	-1.0	-1.0	-1.0	-1.0	-1.0	-1.0	-1.0	0.0	marker	opened-hand	Open	15	0418
-66832.38	-53532.405	-103047.93	-17935.29	0.0	0.0	0.0	0.0	0.0	0.0	0.0	0.0	0.0	0.0	0.0	0.0	0.0	0.0	146.0	0.0	0.05029284	-0.116637885	1.019467605	4.25754	-0.8698199999999999	-0.30519999999999997	3211377.0	1776544812.654639	0.0	1.0	-1.0	-1.0	-1.0	-1.0	-1.0	-1.0	-1.0	-1.0	0.0	marker	opened-hand	Open	15	0418
-66849.435	-53537.4	-103073.625	-17960.67	0.0	0.0	0.0	0.0	0.0	0.0	0.0	0.0	0.0	0.0	0.0	0.0	0.0	0.0	146.0	0.0	0.05029284	-0.116637885	1.019467605	4.25754	-0.8698199999999999	-0.30519999999999997	3211378.0	1776544812.65467	0.0	1.0	-1.0	-1.0	-1.0	-1.0	-1.0	-1.0	-1.0	-1.0	0.0	marker	opened-hand	Open	15	0418
-66830.265	-53530.604999999996	-103036.23	-17931.6	0.0	0.0	0.0	0.0	0.0	0.0	0.0	0.0	0.0	0.0	0.0	0.0	0.0	0.0	146.0	0.0	0.05029284	-0.116637885	1.019467605	4.25754	-0.8698199999999999	-0.30519999999999997	3211379.0	1776544812.658732	0.0	1.0	-1.0	-1.0	-1.0	-1.0	-1.0	-1.0	-1.0	-1.0	0.0	marker	opened-hand	Open	15	0418
-66831.84	-53528.579999999994	-103024.44	-17929.844999999998	0.0	0.0	0.0	0.0	0.0	0.0	0.0	0.0	0.0	0.0	0.0	0.0	0.0	0.0	146.0	0.0	0.05029284	-0.116637885	1.019467605	4.25754	-0.8698199999999999	-0.30519999999999997	3211380.0	1776544812.658753	0.0	1.0	-1.0	-1.0	-1.0	-1.0	-1.0	-1.0	-1.0	-1.0	0.0	marker	opened-hand	Open	15	0418
-66801.645	-53543.835	-103029.75	-17930.43	0.0	0.0	0.0	0.0	0.0	0.0	0.0	0.0	0.0	0.0	0.0	0.0	0.0	0.0	146.0	0.0	0.05029284	-0.116637885	1.019467605	4.25754	-0.8698199999999999	-0.30519999999999997	3211381.0	1776544812.663883	0.0	1.0	-1.0	-1.0	-1.0	-1.0	-1.0	-1.0	-1.0	-1.0	0.0	marker	opened-hand	Open	15	0418
-66767.4	-53557.335	-103072.995	-17945.235	0.0	0.0	0.0	0.0	0.0	0.0	0.0	0.0	0.0	0.0	0.0	0.0	0.0	0.0	146.0	0.0	0.05029284	-0.116637885	1.019467605	4.25754	-0.8698199999999999	-0.30519999999999997	3211382.0	1776544812.663902	0.0	1.0	-1.0	-1.0	-1.0	-1.0	-1.0	-1.0	-1.0	-1.0	0.0	marker	opened-hand	Open	15	0418
-66670.47	-53557.38	-102989.025	-17852.67	0.0	0.0	0.0	0.0	0.0	0.0	0.0	0.0	0.0	0.0	0.0	0.0	0.0	0.0	146.0	0.0	0.05029284	-0.116637885	1.019467605	4.25754	-0.8698199999999999	-0.30519999999999997	3211383.0	1776544812.666697	0.0	1.0	-1.0	-1.0	-1.0	-1.0	-1.0	-1.0	-1.0	-1.0	0.0	marker	opened-hand	Open	15	0418
-66681.765	-53555.579999999994	-102908.745	-17810.01	0.0	0.0	0.0	0.0	0.0	0.0	0.0	0.0	0.0	0.0	0.0	0.0	0.0	0.0	146.0	0.0	0.05029284	-0.116637885	1.019467605	4.25754	-0.8698199999999999	-0.30519999999999997	3211384.0	1776544812.666722	0.0	1.0	-1.0	-1.0	-1.0	-1.0	-1.0	-1.0	-1.0	-1.0	0.0	marker	opened-hand	Open	15	0418
-66883.185	-53502.975	-103020.705	-17914.59	0.0	0.0	0.0	0.0	0.0	0.0	0.0	0.0	0.0	0.0	0.0	0.0	0.0	0.0	146.0	0.0	0.05029284	-0.116637885	1.019467605	4.25754	-0.8698199999999999	-0.30519999999999997	3211385.0	1776544812.672603	0.0	1.0	-1.0	-1.0	-1.0	-1.0	-1.0	-1.0	-1.0	-1.0	0.0	marker	opened-hand	Open	15	0418
-66877.965	-53463.6	-103044.06	-17954.19	0.0	0.0	0.0	0.0	0.0	0.0	0.0	0.0	0.0	0.0	0.0	0.0	0.0	0.0	146.0	0.0	0.05029284	-0.116637885	1.019467605	4.25754	-0.8698199999999999	-0.30519999999999997	3211386.0	1776544812.67263	0.0	1.0	-1.0	-1.0	-1.0	-1.0	-1.0	-1.0	-1.0	-1.0	0.0	marker	opened-hand	Open	15	0418
-66749.895	-53462.88	-102956.12999999999	-17892.315	0.0	0.0	0.0	0.0	0.0	0.0	0.0	0.0	0.0	0.0	0.0	0.0	0.0	0.0	146.0	0.0	0.049316280000000004	-0.11120577	1.018857255	2.45686	-1.32762	-0.7019599999999999	3211387.0	1776544812.675591	0.0	1.0	-1.0	-1.0	-1.0	-1.0	-1.0	-1.0	-1.0	-1.0	0.0	marker	opened-hand	Open	15	0418
-66625.83	-53455.229999999996	-102854.51999999999	-17755.515	0.0	0.0	0.0	0.0	0.0	0.0	0.0	0.0	0.0	0.0	0.0	0.0	0.0	0.0	146.0	0.0	0.049316280000000004	-0.11120577	1.018857255	2.45686	-1.32762	-0.7019599999999999	3211388.0	1776544812.675607	0.0	1.0	-1.0	-1.0	-1.0	-1.0	-1.0	-1.0	-1.0	-1.0	0.0	marker	opened-hand	Open	15	0418
-66676.59	-53451.045	-102928.76999999999	-17779.184999999998	0.0	0.0	0.0	0.0	0.0	0.0	0.0	0.0	0.0	0.0	0.0	0.0	0.0	0.0	146.0	0.0	0.049316280000000004	-0.11120577	1.018857255	2.45686	-1.32762	-0.7019599999999999	3211389.0	1776544812.678758	0.0	1.0	-1.0	-1.0	-1.0	-1.0	-1.0	-1.0	-1.0	-1.0	0.0	marker	opened-hand	Open	15	0418
-66730.14	-53450.235	-102940.37999999999	-17819.28	0.0	0.0	0.0	0.0	0.0	0.0	0.0	0.0	0.0	0.0	0.0	0.0	0.0	0.0	146.0	0.0	0.049316280000000004	-0.11120577	1.018857255	2.45686	-1.32762	-0.7019599999999999	3211390.0	1776544812.67877	0.0	1.0	-1.0	-1.0	-1.0	-1.0	-1.0	-1.0	-1.0	-1.0	0.0	marker	opened-hand	Open	15	0418
