ch_0	ch_1	ch_2	ch_3	ch_4	ch_5	ch_6	ch_7	ch_8	ch_9	ch_10	ch_11	ch_12	ch_13	ch_14	ch_15	ch_16	ch_17	ch_18	ch_19	ch_20	ch_21	ch_22	ch_23	ch_24	ch_25	ch_26	timestamp	marker	ch_29	ch_30	ch_31	ch_32	ch_33	ch_34	ch_35	ch_36	ch_37	ch_38	MarkerColumn	GestureLabel	CueLabel	SampleNumber	CollectionDate
-66384.0	-52837.695	-102333.78	-17823.69	0.0	0.0	0.0	0.0	0.0	0.0	0.0	0.0	0.0	0.0	0.0	0.0	0.0	0.0	146.13793103448276	0.0	0.02270502	-0.094421145	1.01843001	1.15976	0.35097999999999996	0.5341	3185130.0	1776544759.978315	3.0	1.0	-1.0	-1.0	-1.0	-1.0	-1.0	-1.0	-1.0	-1.0	0.0	marker	opened-hand	Open	10	0418
-66612.015	-52836.704999999994	-102518.595	-17992.485	0.0	0.0	0.0	0.0	0.0	0.0	0.0	0.0	0.0	0.0	0.0	0.0	0.0	0.0	146.13793103448276	0.0	0.02270502	-0.094421145	1.01843001	1.15976	0.35097999999999996	0.5341	3185131.0	1776544759.978331	0.0	1.0	-1.0	-1.0	-1.0	-1.0	-1.0	-1.0	-1.0	-1.0	0.0	marker	opened-hand	Open	10	0418
-66613.905	-52841.115	-102749.805	-18270.945	0.0	0.0	0.0	0.0	0.0	0.0	0.0	0.0	0.0	0.0	0.0	0.0	0.0	0.0	146.13793103448276	0.0	0.02270502	-0.094421145	1.01843001	1.15976	0.35097999999999996	0.5341	3185132.0	1776544759.982222	0.0	1.0	-1.0	-1.0	-1.0	-1.0	-1.0	-1.0	-1.0	-1.0	0.0	marker	opened-hand	Open	10	0418
-66690.58499999999	-52848.09	-102826.89	-18366.84	0.0	0.0	0.0	0.0	0.0	0.0	0.0	0.0	0.0	0.0	0.0	0.0	0.0	0.0	146.13793103448276	0.0	0.02270502	-0.094421145	1.01843001	1.15976	0.35097999999999996	0.5341	3185133.0	1776544759.982238	0.0	1.0	-1.0	-1.0	-1.0	-1.0	-1.0	-1.0	-1.0	-1.0	0.0	marker	opened-hand	Open	10	0418
-66592.34999999999	-52841.52	-102473.64	-18000.765	0.0	0.0	0.0	0.0	0.0	0.0	0.0	0.0	0.0	0.0	0.0	0.0	0.0	0.0	146.13793103448276	0.0	0.012207	-0.101623275	1.02404523	2.76206	-0.54936	0.09156	3185134.0	1776544759.986277	0.0	1.0	-1.0	-1.0	-1.0	-1.0	-1.0	-1.0	-1.0	-1.0	0.0	marker	opened-hand	Open	10	0418
-66343.815	-52825.185	-102253.815	-17785.575	0.0	0.0	0.0	0.0	0.0	0.0	0.0	0.0	0.0	0.0	0.0	0.0	0.0	0.0	146.13793103448276	0.0	0.012207	-0.101623275	1.02404523	2.76206	-0.54936	0.09156	3185135.0	1776544759.986293	0.0	1.0	-1.0	-1.0	-1.0	-1.0	-1.0	-1.0	-1.0	-1.0	0.0	marker	opened-hand	Open	10	0418
-66231.98999999999	-52824.329999999994	-102307.05	-17815.274999999998	0.0	0.0	0.0	0.0	0.0	0.0	0.0	0.0	0.0	0.0	0.0	0.0	0.0	0.0	146.13793103448276	0.0	0.012207	-0.101623275	1.02404523	2.76206	-0.54936	0.09156	3185136.0	1776544759.99028	0.0	1.0	-1.0	-1.0	-1.0	-1.0	-1.0	-1.0	-1.0	-1.0	0.0	marker	opened-hand	Open	10	0418
-66338.64	-52830.27	-102332.385	-17842.23	0.0	0.0	0.0	0.0	0.0	0.0	0.0	0.0	0.0	0.0	0.0	0.0	0.0	0.0	146.13793103448276	0.0	0.012207	-0.101623275	1.02404523	2.76206	-0.54936	0.09156	3185137.0	1776544759.990296	0.0	1.0	-1.0	-1.0	-1.0	-1.0	-1.0	-1.0	-1.0	-1.0	0.0	marker	opened-hand	Open	10	0418
-66152.79	-52811.729999999996	-102126.64499999999	-17699.085	0.0	0.0	0.0	0.0	0.0	0.0	0.0	0.0	0.0	0.0	0.0	0.0	0.0	0.0	146.13793103448276	0.0	0.012207	-0.101623275	1.02404523	2.76206	-0.54936	0.09156	3185138.0	1776544759.996555	0.0	1.0	-1.0	-1.0	-1.0	-1.0	-1.0	-1.0	-1.0	-1.0	0.0	marker	opened-hand	Open	10	0418
-66414.87	-52815.104999999996	-102410.37	-17918.954999999998	0.0	0.0	0.0	0.0	0.0	0.0	0.0	0.0	0.0	0.0	0.0	0.0	0.0	0.0	146.13793103448276	0.0	0.012207	-0.101623275	1.02404523	2.76206	-0.54936	0.09156	3185139.0	1776544759.99657	0.0	1.0	-1.0	-1.0	-1.0	-1.0	-1.0	-1.0	-1.0	-1.0	0.0	marker	opened-hand	Open	10	0418
-66786.56999999999	-52839.585	-102847.36499999999	-18296.594999999998	0.0	0.0	0.0	0.0	0.0	0.0	0.0	0.0	0.0	0.0	0.0	0.0	0.0	0.0	146.13793103448276	0.0	0.012207	-0.101623275	1.02404523	2.76206	-0.54936	0.09156	3185140.0	1776544759.998296	0.0	1.0	-1.0	-1.0	-1.0	-1.0	-1.0	-1.0	-1.0	-1.0	0.0	marker	opened-hand	Open	10	0418
-66711.19499999999	-52834.725	-102792.23999999999	-18281.16	0.0	0.0	0.0	0.0	0.0	0.0	0.0	0.0	0.0	0.0	0.0	0.0	0.0	0.0	146.13793103448276	0.0	0.012207	-0.101623275	1.02404523	2.76206	-0.54936	0.09156	3185141.0	1776544759.998312	0.0	1.0	-1.0	-1.0	-1.0	-1.0	-1.0	-1.0	-1.0	-1.0	0.0	marker	opened-hand	Open	10	0418
-66574.755	-52827.435	-102539.87999999999	-18050.175	0.0	0.0	0.0	0.0	0.0	0.0	0.0	0.0	0.0	0.0	0.0	0.0	0.0	0.0	146.13793103448276	0.0	0.012207	-0.101623275	1.02404523	2.76206	-0.54936	0.09156	3185142.0	1776544760.002258	0.0	1.0	-1.0	-1.0	-1.0	-1.0	-1.0	-1.0	-1.0	-1.0	0.0	marker	opened-hand	Open	10	0418
-66463.73999999999	-52830.09	-102447.18	-17973.18	0.0	0.0	0.0	0.0	0.0	0.0	0.0	0.0	0.0	0.0	0.0	0.0	0.0	0.0	146.13793103448276	0.0	0.012207	-0.101623275	1.02404523	2.76206	-0.54936	0.09156	3185143.0	1776544760.002262	0.0	1.0	-1.0	-1.0	-1.0	-1.0	-1.0	-1.0	-1.0	-1.0	0.0	marker	opened-hand	Open	10	0418
-66540.19499999999	-52838.505	-102535.155	-18057.915	0.0	0.0	0.0	0.0	0.0	0.0	0.0	0.0	0.0	0.0	0.0	0.0	0.0	0.0	146.13793103448276	0.0	0.011779755	-0.100890855	1.01904036	2.6704999999999997	-0.56462	-0.35097999999999996	3185144.0	1776544760.006376	0.0	1.0	-1.0	-1.0	-1.0	-1.0	-1.0	-1.0	-1.0	-1.0	0.0	marker	opened-hand	Open	10	0418
-66443.805	-52821.18	-102377.745	-17929.305	0.0	0.0	0.0	0.0	0.0	0.0	0.0	0.0	0.0	0.0	0.0	0.0	0.0	0.0	146.13793103448276	0.0	0.011779755	-0.100890855	1.01904036	2.6704999999999997	-0.56462	-0.35097999999999996	3185145.0	1776544760.006391	0.0	1.0	-1.0	-1.0	-1.0	-1.0	-1.0	-1.0	-1.0	-1.0	0.0	marker	opened-hand	Open	10	0418
-66180.87	-52796.295	-102114.94499999999	-17710.065	0.0	0.0	0.0	0.0	0.0	0.0	0.0	0.0	0.0	0.0	0.0	0.0	0.0	0.0	146.13793103448276	0.0	0.011779755	-0.100890855	1.01904036	2.6704999999999997	-0.56462	-0.35097999999999996	3185146.0	1776544760.010277	0.0	1.0	-1.0	-1.0	-1.0	-1.0	-1.0	-1.0	-1.0	-1.0	0.0	marker	opened-hand	Open	10	0418
-66366.54	-52802.729999999996	-102396.555	-17903.295	0.0	0.0	0.0	0.0	0.0	0.0	0.0	0.0	0.0	0.0	0.0	0.0	0.0	0.0	146.13793103448276	0.0	0.011779755	-0.100890855	1.01904036	2.6704999999999997	-0.56462	-0.35097999999999996	3185147.0	1776544760.010292	0.0	1.0	-1.0	-1.0	-1.0	-1.0	-1.0	-1.0	-1.0	-1.0	0.0	marker	opened-hand	Open	10	0418
-66673.53	-52821.765	-102723.795	-18160.02	0.0	0.0	0.0	0.0	0.0	0.0	0.0	0.0	0.0	0.0	0.0	0.0	0.0	0.0	146.13793103448276	0.0	0.011779755	-0.100890855	1.01904036	2.6704999999999997	-0.56462	-0.35097999999999996	3185148.0	1776544760.014262	0.0	1.0	-1.0	-1.0	-1.0	-1.0	-1.0	-1.0	-1.0	-1.0	0.0	marker	opened-hand	Open	10	0418
-66615.165	-52816.32	-102652.33499999999	-18158.085	0.0	0.0	0.0	0.0	0.0	0.0	0.0	0.0	0.0	0.0	0.0	0.0	0.0	0.0	146.13793103448276	0.0	0.011779755	-0.100890855	1.01904036	2.6704999999999997	-0.56462	-0.35097999999999996	3185149.0	1776544760.014277	0.0	1.0	-1.0	-1.0	-1.0	-1.0	-1.0	-1.0	-1.0	-1.0	0.0	marker	opened-hand	Open	10	0418
-66393.855	-52809.479999999996	-102406.095	-17918.684999999998	0.0	0.0	0.0	0.0	0.0	0.0	0.0	0.0	0.0	0.0	0.0	0.0	0.0	0.0	146.13793103448276	0.0	0.011779755	-0.100890855	1.01904036	2.6704999999999997	-0.56462	-0.35097999999999996	3185150.0	1776544760.018321	0.0	1.0	-1.0	-1.0	-1.0	-1.0	-1.0	-1.0	-1.0	-1.0	0.0	marker	opened-hand	Open	10	0418
-66431.11499999999	-52824.104999999996	-102347.28	-17833.14	0.0	0.0	0.0	0.0	0.0	0.0	0.0	0.0	0.0	0.0	0.0	0.0	0.0	0.0	146.13793103448276	0.0	0.011779755	-0.100890855	1.01904036	2.6704999999999997	-0.56462	-0.35097999999999996	3185151.0	1776544760.018336	0.0	1.0	-1.0	-1.0	-1.0	-1.0	-1.0	-1.0	-1.0	-1.0	0.0	marker	opened-hand	Open	10	0418
-66581.325	-52847.28	-102611.79	-18121.68	0.0	0.0	0.0	0.0	0.0	0.0	0.0	0.0	0.0	0.0	0.0	0.0	0.0	0.0	146.13793103448276	0.0	0.011779755	-0.100890855	1.01904036	2.6704999999999997	-0.56462	-0.35097999999999996	3185152.0	1776544760.022239	0.0	1.0	-1.0	-1.0	-1.0	-1.0	-1.0	-1.0	-1.0	-1.0	0.0	marker	opened-hand	Open	10	0418
-66571.29	-52849.935	-102633.48	-18146.385	0.0	0.0	0.0	0.0	0.0	0.0	0.0	0.0	0.0	0.0	0.0	0.0	0.0	0.0	146.13793103448276	0.0	0.011779755	-0.100890855	1.01904036	2.6704999999999997	-0.56462	-0.35097999999999996	3185153.0	1776544760.022254	0.0	1.0	-1.0	-1.0	-1.0	-1.0	-1.0	-1.0	-1.0	-1.0	0.0	marker	opened-hand	Open	10	0418
-66403.08	-52825.905	-102465.09	-17975.204999999998	0.0	0.0	0.0	0.0	0.0	0.0	0.0	0.0	0.0	0.0	0.0	0.0	0.0	0.0	146.13793103448276	0.0	0.015197715	-0.1062009	1.017758625	4.54748	-0.71722	-0.9308599999999999	3185154.0	1776544760.026075	0.0	1.0	-1.0	-1.0	-1.0	-1.0	-1.0	-1.0	-1.0	-1.0	0.0	marker	opened-hand	Open	10	0418
-66419.955	-52816.905	-102402.54	-17895.735	0.0	0.0	0.0	0.0	0.0	0.0	0.0	0.0	0.0	0.0	0.0	0.0	0.0	0.0	146.13793103448276	0.0	0.015197715	-0.1062009	1.017758625	4.54748	-0.71722	-0.9308599999999999	3185155.0	1776544760.02609	0.0	1.0	-1.0	-1.0	-1.0	-1.0	-1.0	-1.0	-1.0	-1.0	0.0	marker	opened-hand	Open	10	0418
-66559.05	-52824.329999999994	-102523.00499999999	-18000.719999999998	0.0	0.0	0.0	0.0	0.0	0.0	0.0	0.0	0.0	0.0	0.0	0.0	0.0	0.0	146.13793103448276	0.0	0.015197715	-0.1062009	1.017758625	4.54748	-0.71722	-0.9308599999999999	3185156.0	1776544760.030537	0.0	1.0	-1.0	-1.0	-1.0	-1.0	-1.0	-1.0	-1.0	-1.0	0.0	marker	opened-hand	Open	10	0418
-66457.8	-52831.215	-102529.03499999999	-18040.32	0.0	0.0	0.0	0.0	0.0	0.0	0.0	0.0	0.0	0.0	0.0	0.0	0.0	0.0	146.13793103448276	0.0	0.015197715	-0.1062009	1.017758625	4.54748	-0.71722	-0.9308599999999999	3185157.0	1776544760.030553	0.0	1.0	-1.0	-1.0	-1.0	-1.0	-1.0	-1.0	-1.0	-1.0	0.0	marker	opened-hand	Open	10	0418
-66351.33	-52826.805	-102409.605	-17919.495	0.0	0.0	0.0	0.0	0.0	0.0	0.0	0.0	0.0	0.0	0.0	0.0	0.0	0.0	146.13793103448276	0.0	0.015197715	-0.1062009	1.017758625	4.54748	-0.71722	-0.9308599999999999	3185158.0	1776544760.034349	0.0	1.0	-1.0	-1.0	-1.0	-1.0	-1.0	-1.0	-1.0	-1.0	0.0	marker	opened-hand	Open	10	0418
-66349.89	-52835.445	-102340.845	-17877.555	0.0	0.0	0.0	0.0	0.0	0.0	0.0	0.0	0.0	0.0	0.0	0.0	0.0	0.0	146.13793103448276	0.0	0.015197715	-0.1062009	1.017758625	4.54748	-0.71722	-0.9308599999999999	3185159.0	1776544760.034365	0.0	1.0	-1.0	-1.0	-1.0	-1.0	-1.0	-1.0	-1.0	-1.0	0.0	marker	opened-hand	Open	10	0418
-66272.58	-52829.595	-102213.72	-17771.265	0.0	0.0	0.0	0.0	0.0	0.0	0.0	0.0	0.0	0.0	0.0	0.0	0.0	0.0	146.13793103448276	0.0	0.015197715	-0.1062009	1.017758625	4.54748	-0.71722	-0.9308599999999999	3185160.0	1776544760.038435	0.0	1.0	-1.0	-1.0	-1.0	-1.0	-1.0	-1.0	-1.0	-1.0	0.0	marker	opened-hand	Open	10	0418
-66498.795	-52841.475	-102442.23	-17971.92	0.0	0.0	0.0	0.0	0.0	0.0	0.0	0.0	0.0	0.0	0.0	0.0	0.0	0.0	146.13793103448276	0.0	0.015197715	-0.1062009	1.017758625	4.54748	-0.71722	-0.9308599999999999	3185161.0	1776544760.038451	0.0	1.0	-1.0	-1.0	-1.0	-1.0	-1.0	-1.0	-1.0	-1.0	0.0	marker	opened-hand	Open	10	0418
-66529.395	-52840.17	-102469.905	-18004.05	0.0	0.0	0.0	0.0	0.0	0.0	0.0	0.0	0.0	0.0	0.0	0.0	0.0	0.0	146.13793103448276	0.0	0.015197715	-0.1062009	1.017758625	4.54748	-0.71722	-0.9308599999999999	3185162.0	1776544760.044455	0.0	1.0	-1.0	-1.0	-1.0	-1.0	-1.0	-1.0	-1.0	-1.0	0.0	marker	opened-hand	Open	10	0418
-66137.48999999999	-52808.31	-102084.48	-17598.239999999998	0.0	0.0	0.0	0.0	0.0	0.0	0.0	0.0	0.0	0.0	0.0	0.0	0.0	0.0	146.13793103448276	0.0	0.015197715	-0.1062009	1.017758625	4.54748	-0.71722	-0.9308599999999999	3185163.0	1776544760.04447	0.0	1.0	-1.0	-1.0	-1.0	-1.0	-1.0	-1.0	-1.0	-1.0	0.0	marker	opened-hand	Open	10	0418
-66480.795	-52805.384999999995	-102405.105	-17870.309999999998	0.0	0.0	0.0	0.0	0.0	0.0	0.0	0.0	0.0	0.0	0.0	0.0	0.0	0.0	146.13793103448276	0.0	0.01428219	-0.09497046	1.01257065	4.01338	-0.59514	-0.79352	3185164.0	1776544760.048267	0.0	1.0	-1.0	-1.0	-1.0	-1.0	-1.0	-1.0	-1.0	-1.0	0.0	marker	opened-hand	Open	10	0418
-66651.56999999999	-52721.909999999996	-102668.715	-18149.94	0.0	0.0	0.0	0.0	0.0	0.0	0.0	0.0	0.0	0.0	0.0	0.0	0.0	0.0	146.13793103448276	0.0	0.01428219	-0.09497046	1.01257065	4.01338	-0.59514	-0.79352	3185165.0	1776544760.048282	0.0	1.0	-1.0	-1.0	-1.0	-1.0	-1.0	-1.0	-1.0	-1.0	0.0	marker	opened-hand	Open	10	0418
-66651.705	-52684.65	-102710.34	-18227.114999999998	0.0	0.0	0.0	0.0	0.0	0.0	0.0	0.0	0.0	0.0	0.0	0.0	0.0	0.0	146.13793103448276	0.0	0.01428219	-0.09497046	1.01257065	4.01338	-0.59514	-0.79352	3185166.0	1776544760.050572	0.0	1.0	-1.0	-1.0	-1.0	-1.0	-1.0	-1.0	-1.0	-1.0	0.0	marker	opened-hand	Open	10	0418
-66647.79	-52680.104999999996	-102692.565	-18167.895	0.0	0.0	0.0	0.0	0.0	0.0	0.0	0.0	0.0	0.0	0.0	0.0	0.0	0.0	146.13793103448276	0.0	0.01428219	-0.09497046	1.01257065	4.01338	-0.59514	-0.79352	3185167.0	1776544760.050588	0.0	1.0	-1.0	-1.0	-1.0	-1.0	-1.0	-1.0	-1.0	-1.0	0.0	marker	opened-hand	Open	10	0418
-66586.59	-52678.979999999996	-102635.595	-18126.18	0.0	0.0	0.0	0.0	0.0	0.0	0.0	0.0	0.0	0.0	0.0	0.0	0.0	0.0	146.13793103448276	0.0	0.01428219	-0.09497046	1.01257065	4.01338	-0.59514	-0.79352	3185168.0	1776544760.05451	0.0	1.0	-1.0	-1.0	-1.0	-1.0	-1.0	-1.0	-1.0	-1.0	0.0	marker	opened-hand	Open	10	0418
-66454.56	-52675.064999999995	-102432.375	-17958.915	0.0	0.0	0.0	0.0	0.0	0.0	0.0	0.0	0.0	0.0	0.0	0.0	0.0	0.0	146.13793103448276	0.0	0.01428219	-0.09497046	1.01257065	4.01338	-0.59514	-0.79352	3185169.0	1776544760.05452	0.0	1.0	-1.0	-1.0	-1.0	-1.0	-1.0	-1.0	-1.0	-1.0	0.0	marker	opened-hand	Open	10	0418
-66514.545	-52675.515	-102408.12	-17929.44	0.0	0.0	0.0	0.0	0.0	0.0	0.0	0.0	0.0	0.0	0.0	0.0	0.0	0.0	146.13793103448276	0.0	0.01428219	-0.09497046	1.01257065	4.01338	-0.59514	-0.79352	3185170.0	1776544760.058514	0.0	1.0	-1.0	-1.0	-1.0	-1.0	-1.0	-1.0	-1.0	-1.0	0.0	marker	opened-hand	Open	10	0418
-66404.655	-52674.39	-102312.18	-17841.015	0.0	0.0	0.0	0.0	0.0	0.0	0.0	0.0	0.0	0.0	0.0	0.0	0.0	0.0	146.13793103448276	0.0	0.01428219	-0.09497046	1.01257065	4.01338	-0.59514	-0.79352	3185171.0	1776544760.058531	0.0	1.0	-1.0	-1.0	-1.0	-1.0	-1.0	-1.0	-1.0	-1.0	0.0	marker	opened-hand	Open	10	0418
-66399.84	-52686.674999999996	-102406.31999999999	-17936.28	0.0	0.0	0.0	0.0	0.0	0.0	0.0	0.0	0.0	0.0	0.0	0.0	0.0	0.0	146.13793103448276	0.0	0.01428219	-0.09497046	1.01257065	4.01338	-0.59514	-0.79352	3185172.0	1776544760.067487	0.0	1.0	-1.0	-1.0	-1.0	-1.0	-1.0	-1.0	-1.0	-1.0	0.0	marker	opened-hand	Open	10	0418
-66497.13	-52698.465	-102491.055	-18022.95	0.0	0.0	0.0	0.0	0.0	0.0	0.0	0.0	0.0	0.0	0.0	0.0	0.0	0.0	146.13793103448276	0.0	0.01428219	-0.09497046	1.01257065	4.01338	-0.59514	-0.79352	3185173.0	1776544760.067503	0.0	1.0	-1.0	-1.0	-1.0	-1.0	-1.0	-1.0	-1.0	-1.0	0.0	marker	opened-hand	Open	10	0418
-66469.005	-52694.64	-102432.87	-17961.48	0.0	0.0	0.0	0.0	0.0	0.0	0.0	0.0	0.0	0.0	0.0	0.0	0.0	0.0	146.13793103448276	0.0	0.02502435	-0.091613535	1.006284045	2.71628	0.42728	-0.71722	3185174.0	1776544760.06752	0.0	1.0	-1.0	-1.0	-1.0	-1.0	-1.0	-1.0	-1.0	-1.0	0.0	marker	opened-hand	Open	10	0418
-66470.4	-52698.735	-102455.595	-17937.63	0.0	0.0	0.0	0.0	0.0	0.0	0.0	0.0	0.0	0.0	0.0	0.0	0.0	0.0	146.13793103448276	0.0	0.02502435	-0.091613535	1.006284045	2.71628	0.42728	-0.71722	3185175.0	1776544760.067526	0.0	1.0	-1.0	-1.0	-1.0	-1.0	-1.0	-1.0	-1.0	-1.0	0.0	marker	opened-hand	Open	10	0418
-66356.55	-52698.78	-102385.44	-17877.51	0.0	0.0	0.0	0.0	0.0	0.0	0.0	0.0	0.0	0.0	0.0	0.0	0.0	0.0	146.13793103448276	0.0	0.02502435	-0.091613535	1.006284045	2.71628	0.42728	-0.71722	3185176.0	1776544760.07193	0.0	1.0	-1.0	-1.0	-1.0	-1.0	-1.0	-1.0	-1.0	-1.0	0.0	marker	opened-hand	Open	10	0418
-66377.16	-52702.604999999996	-102399.48	-17910.36	0.0	0.0	0.0	0.0	0.0	0.0	0.0	0.0	0.0	0.0	0.0	0.0	0.0	0.0	146.13793103448276	0.0	0.02502435	-0.091613535	1.006284045	2.71628	0.42728	-0.71722	3185177.0	1776544760.071946	0.0	1.0	-1.0	-1.0	-1.0	-1.0	-1.0	-1.0	-1.0	-1.0	0.0	marker	opened-hand	Open	10	0418
-66458.88	-52712.369999999995	-102541.86	-18055.395	0.0	0.0	0.0	0.0	0.0	0.0	0.0	0.0	0.0	0.0	0.0	0.0	0.0	0.0	146.13793103448276	0.0	0.02502435	-0.091613535	1.006284045	2.71628	0.42728	-0.71722	3185178.0	1776544760.169437	0.0	1.0	-1.0	-1.0	-1.0	-1.0	-1.0	-1.0	-1.0	-1.0	0.0	marker	opened-hand	Open	10	0418
-66541.095	-52705.89	-102618.26999999999	-18115.29	0.0	0.0	0.0	0.0	0.0	0.0	0.0	0.0	0.0	0.0	0.0	0.0	0.0	0.0	146.13793103448276	0.0	0.02502435	-0.091613535	1.006284045	2.71628	0.42728	-0.71722	3185179.0	1776544760.169465	0.0	1.0	-1.0	-1.0	-1.0	-1.0	-1.0	-1.0	-1.0	-1.0	0.0	marker	opened-hand	Open	10	0418
-66220.29	-52669.845	-102234.64499999999	-17752.905	0.0	0.0	0.0	0.0	0.0	0.0	0.0	0.0	0.0	0.0	0.0	0.0	0.0	0.0	146.13793103448276	0.0	0.02502435	-0.091613535	1.006284045	2.71628	0.42728	-0.71722	3185180.0	1776544760.169604	0.0	1.0	-1.0	-1.0	-1.0	-1.0	-1.0	-1.0	-1.0	-1.0	0.0	marker	opened-hand	Open	10	0418
-66256.92	-52654.005	-102272.12999999999	-17769.96	0.0	0.0	0.0	0.0	0.0	0.0	0.0	0.0	0.0	0.0	0.0	0.0	0.0	0.0	146.13793103448276	0.0	0.02502435	-0.091613535	1.006284045	2.71628	0.42728	-0.71722	3185181.0	1776544760.169627	0.0	1.0	-1.0	-1.0	-1.0	-1.0	-1.0	-1.0	-1.0	-1.0	0.0	marker	opened-hand	Open	10	0418
-66459.015	-52662.645	-102538.08	-18051.344999999998	0.0	0.0	0.0	0.0	0.0	0.0	0.0	0.0	0.0	0.0	0.0	0.0	0.0	0.0	146.13793103448276	0.0	0.02502435	-0.091613535	1.006284045	2.71628	0.42728	-0.71722	3185182.0	1776544760.169647	0.0	1.0	-1.0	-1.0	-1.0	-1.0	-1.0	-1.0	-1.0	-1.0	0.0	marker	opened-hand	Open	10	0418
-66543.56999999999	-52679.79	-102592.665	-18122.265	0.0	0.0	0.0	0.0	0.0	0.0	0.0	0.0	0.0	0.0	0.0	0.0	0.0	0.0	146.13793103448276	0.0	0.02502435	-0.091613535	1.006284045	2.71628	0.42728	-0.71722	3185183.0	1776544760.169658	0.0	1.0	-1.0	-1.0	-1.0	-1.0	-1.0	-1.0	-1.0	-1.0	0.0	marker	opened-hand	Open	10	0418
-66351.59999999999	-52679.79	-102269.51999999999	-17847.495	0.0	0.0	0.0	0.0	0.0	0.0	0.0	0.0	0.0	0.0	0.0	0.0	0.0	0.0	146.13793103448276	0.0	0.02490228	-0.09533667	1.0095189	3.4640199999999997	0.9308599999999999	-1.46496	3185184.0	1776544760.169673	0.0	1.0	-1.0	-1.0	-1.0	-1.0	-1.0	-1.0	-1.0	-1.0	0.0	marker	opened-hand	Open	10	0418
-66389.895	-52683.119999999995	-102193.65	-17780.625	0.0	0.0	0.0	0.0	0.0	0.0	0.0	0.0	0.0	0.0	0.0	0.0	0.0	0.0	146.13793103448276	0.0	0.02490228	-0.09533667	1.0095189	3.4640199999999997	0.9308599999999999	-1.46496	3185185.0	1776544760.169683	0.0	1.0	-1.0	-1.0	-1.0	-1.0	-1.0	-1.0	-1.0	-1.0	0.0	marker	opened-hand	Open	10	0418
-66552.84	-52699.409999999996	-102550.275	-18048.285	0.0	0.0	0.0	0.0	0.0	0.0	0.0	0.0	0.0	0.0	0.0	0.0	0.0	0.0	146.13793103448276	0.0	0.02490228	-0.09533667	1.0095189	3.4640199999999997	0.9308599999999999	-1.46496	3185186.0	1776544760.169699	0.0	1.0	-1.0	-1.0	-1.0	-1.0	-1.0	-1.0	-1.0	-1.0	0.0	marker	opened-hand	Open	10	0418
-66651.61499999999	-52702.064999999995	-102651.165	-18091.395	0.0	0.0	0.0	0.0	0.0	0.0	0.0	0.0	0.0	0.0	0.0	0.0	0.0	0.0	146.13793103448276	0.0	0.02490228	-0.09533667	1.0095189	3.4640199999999997	0.9308599999999999	-1.46496	3185187.0	1776544760.169709	0.0	1.0	-1.0	-1.0	-1.0	-1.0	-1.0	-1.0	-1.0	-1.0	0.0	marker	opened-hand	Open	10	0418
-66571.245	-52689.96	-102509.14499999999	-17985.239999999998	0.0	0.0	0.0	0.0	0.0	0.0	0.0	0.0	0.0	0.0	0.0	0.0	0.0	0.0	146.13793103448276	0.0	0.02490228	-0.09533667	1.0095189	3.4640199999999997	0.9308599999999999	-1.46496	3185188.0	1776544760.169726	0.0	1.0	-1.0	-1.0	-1.0	-1.0	-1.0	-1.0	-1.0	-1.0	0.0	marker	opened-hand	Open	10	0418
-66439.08	-52690.005	-102476.79	-17988.975	0.0	0.0	0.0	0.0	0.0	0.0	0.0	0.0	0.0	0.0	0.0	0.0	0.0	0.0	146.13793103448276	0.0	0.02490228	-0.09533667	1.0095189	3.4640199999999997	0.9308599999999999	-1.46496	3185189.0	1776544760.169736	0.0	1.0	-1.0	-1.0	-1.0	-1.0	-1.0	-1.0	-1.0	-1.0	0.0	marker	opened-hand	Open	10	0418
-66373.02	-52695.99	-102582.81	-18106.875	0.0	0.0	0.0	0.0	0.0	0.0	0.0	0.0	0.0	0.0	0.0	0.0	0.0	0.0	146.13793103448276	0.0	0.02490228	-0.09533667	1.0095189	3.4640199999999997	0.9308599999999999	-1.46496	3185190.0	1776544760.169749	0.0	1.0	-1.0	-1.0	-1.0	-1.0	-1.0	-1.0	-1.0	-1.0	0.0	marker	opened-hand	Open	10	0418
-66545.415	-52713.045	-102686.89499999999	-18168.3	0.0	0.0	0.0	0.0	0.0	0.0	0.0	0.0	0.0	0.0	0.0	0.0	0.0	0.0	146.13793103448276	0.0	0.02490228	-0.09533667	1.0095189	3.4640199999999997	0.9308599999999999	-1.46496	3185191.0	1776544760.169759	0.0	1.0	-1.0	-1.0	-1.0	-1.0	-1.0	-1.0	-1.0	-1.0	0.0	marker	opened-hand	Open	10	0418
-66604.275	-52722.18	-102590.14499999999	-18079.02	0.0	0.0	0.0	0.0	0.0	0.0	0.0	0.0	0.0	0.0	0.0	0.0	0.0	0.0	146.13793103448276	0.0	0.02490228	-0.09533667	1.0095189	3.4640199999999997	0.9308599999999999	-1.46496	3185192.0	1776544760.169776	0.0	1.0	-1.0	-1.0	-1.0	-1.0	-1.0	-1.0	-1.0	-1.0	0.0	marker	opened-hand	Open	10	0418
-66526.155	-52713.81	-102452.355	-17966.969999999998	0.0	0.0	0.0	0.0	0.0	0.0	0.0	0.0	0.0	0.0	0.0	0.0	0.0	0.0	146.13793103448276	0.0	0.02490228	-0.09533667	1.0095189	3.4640199999999997	0.9308599999999999	-1.46496	3185193.0	1776544760.169786	0.0	1.0	-1.0	-1.0	-1.0	-1.0	-1.0	-1.0	-1.0	-1.0	0.0	marker	opened-hand	Open	10	0418
-66613.95	-52720.47	-102543.795	-18044.82	0.0	0.0	0.0	0.0	0.0	0.0	0.0	0.0	0.0	0.0	0.0	0.0	0.0	0.0	146.13793103448276	0.0	0.015685995	-0.094909425	1.014828945	3.55558	0.41202	-1.0224199999999999	3185194.0	1776544760.169801	0.0	1.0	-1.0	-1.0	-1.0	-1.0	-1.0	-1.0	-1.0	-1.0	0.0	marker	opened-hand	Open	10	0418
-66537.045	-52713.09	-102577.5	-18081.945	0.0	0.0	0.0	0.0	0.0	0.0	0.0	0.0	0.0	0.0	0.0	0.0	0.0	0.0	146.13793103448276	0.0	0.015685995	-0.094909425	1.014828945	3.55558	0.41202	-1.0224199999999999	3185195.0	1776544760.169811	0.0	1.0	-1.0	-1.0	-1.0	-1.0	-1.0	-1.0	-1.0	-1.0	0.0	marker	opened-hand	Open	10	0418
-66513.78	-52694.28	-102470.625	-17963.415	0.0	0.0	0.0	0.0	0.0	0.0	0.0	0.0	0.0	0.0	0.0	0.0	0.0	0.0	146.13793103448276	0.0	0.015685995	-0.094909425	1.014828945	3.55558	0.41202	-1.0224199999999999	3185196.0	1776544760.169827	0.0	1.0	-1.0	-1.0	-1.0	-1.0	-1.0	-1.0	-1.0	-1.0	0.0	marker	opened-hand	Open	10	0418
-66409.38	-52677.45	-102357.94499999999	-17828.954999999998	0.0	0.0	0.0	0.0	0.0	0.0	0.0	0.0	0.0	0.0	0.0	0.0	0.0	0.0	146.13793103448276	0.0	0.015685995	-0.094909425	1.014828945	3.55558	0.41202	-1.0224199999999999	3185197.0	1776544760.16986	0.0	1.0	-1.0	-1.0	-1.0	-1.0	-1.0	-1.0	-1.0	-1.0	0.0	marker	opened-hand	Open	10	0418
-66446.235	-52680.735	-102476.205	-17974.305	0.0	0.0	0.0	0.0	0.0	0.0	0.0	0.0	0.0	0.0	0.0	0.0	0.0	0.0	146.13793103448276	0.0	0.015685995	-0.094909425	1.014828945	3.55558	0.41202	-1.0224199999999999	3185198.0	1776544760.169874	0.0	1.0	-1.0	-1.0	-1.0	-1.0	-1.0	-1.0	-1.0	-1.0	0.0	marker	opened-hand	Open	10	0418
-66410.45999999999	-52676.64	-102452.355	-17974.62	0.0	0.0	0.0	0.0	0.0	0.0	0.0	0.0	0.0	0.0	0.0	0.0	0.0	0.0	146.13793103448276	0.0	0.015685995	-0.094909425	1.014828945	3.55558	0.41202	-1.0224199999999999	3185199.0	1776544760.169884	0.0	1.0	-1.0	-1.0	-1.0	-1.0	-1.0	-1.0	-1.0	-1.0	0.0	marker	opened-hand	Open	10	0418
-66505.77	-52689.645	-102497.4	-18017.28	0.0	0.0	0.0	0.0	0.0	0.0	0.0	0.0	0.0	0.0	0.0	0.0	0.0	0.0	146.13793103448276	0.0	0.015685995	-0.094909425	1.014828945	3.55558	0.41202	-1.0224199999999999	3185200.0	1776544760.1699	0.0	1.0	-1.0	-1.0	-1.0	-1.0	-1.0	-1.0	-1.0	-1.0	0.0	marker	opened-hand	Open	10	0418
-66399.75	-52697.159999999996	-102343.095	-17883.18	0.0	0.0	0.0	0.0	0.0	0.0	0.0	0.0	0.0	0.0	0.0	0.0	0.0	0.0	146.13793103448276	0.0	0.015685995	-0.094909425	1.014828945	3.55558	0.41202	-1.0224199999999999	3185201.0	1776544760.16991	0.0	1.0	-1.0	-1.0	-1.0	-1.0	-1.0	-1.0	-1.0	-1.0	0.0	marker	opened-hand	Open	10	0418
-66475.26	-52740.99	-102446.64	-17954.954999999998	0.0	0.0	0.0	0.0	0.0	0.0	0.0	0.0	0.0	0.0	0.0	0.0	0.0	0.0	146.13793103448276	0.0	0.015685995	-0.094909425	1.014828945	3.55558	0.41202	-1.0224199999999999	3185202.0	1776544760.169929	0.0	1.0	-1.0	-1.0	-1.0	-1.0	-1.0	-1.0	-1.0	-1.0	0.0	marker	opened-hand	Open	10	0418
-66607.56	-52759.305	-102650.76	-18150.795	0.0	0.0	0.0	0.0	0.0	0.0	0.0	0.0	0.0	0.0	0.0	0.0	0.0	0.0	146.13793103448276	0.0	0.015685995	-0.094909425	1.014828945	3.55558	0.41202	-1.0224199999999999	3185203.0	1776544760.169939	0.0	1.0	-1.0	-1.0	-1.0	-1.0	-1.0	-1.0	-1.0	-1.0	0.0	marker	opened-hand	Open	10	0418
-66486.06	-52742.564999999995	-102459.015	-17997.93	0.0	0.0	0.0	0.0	0.0	0.0	0.0	0.0	0.0	0.0	0.0	0.0	0.0	0.0	146.13793103448276	0.0	0.012756315	-0.08642556	1.01855208	1.64808	-0.2289	0.10682	3185204.0	1776544760.169951	0.0	1.0	-1.0	-1.0	-1.0	-1.0	-1.0	-1.0	-1.0	-1.0	0.0	marker	opened-hand	Open	10	0418
-66386.385	-52730.009999999995	-102357.045	-17893.395	0.0	0.0	0.0	0.0	0.0	0.0	0.0	0.0	0.0	0.0	0.0	0.0	0.0	0.0	146.13793103448276	0.0	0.012756315	-0.08642556	1.01855208	1.64808	-0.2289	0.10682	3185205.0	1776544760.169961	0.0	1.0	-1.0	-1.0	-1.0	-1.0	-1.0	-1.0	-1.0	-1.0	0.0	marker	opened-hand	Open	10	0418
-66442.005	-52730.909999999996	-102473.19	-17918.82	0.0	0.0	0.0	0.0	0.0	0.0	0.0	0.0	0.0	0.0	0.0	0.0	0.0	0.0	146.13793103448276	0.0	0.012756315	-0.08642556	1.01855208	1.64808	-0.2289	0.10682	3185206.0	1776544760.169978	0.0	1.0	-1.0	-1.0	-1.0	-1.0	-1.0	-1.0	-1.0	-1.0	0.0	marker	opened-hand	Open	10	0418
-66644.415	-52739.055	-102659.265	-18099.719999999998	0.0	0.0	0.0	0.0	0.0	0.0	0.0	0.0	0.0	0.0	0.0	0.0	0.0	0.0	146.13793103448276	0.0	0.012756315	-0.08642556	1.01855208	1.64808	-0.2289	0.10682	3185207.0	1776544760.169988	0.0	1.0	-1.0	-1.0	-1.0	-1.0	-1.0	-1.0	-1.0	-1.0	0.0	marker	opened-hand	Open	10	0418
-66562.965	-52737.21	-102616.155	-18103.995	0.0	0.0	0.0	0.0	0.0	0.0	0.0	0.0	0.0	0.0	0.0	0.0	0.0	0.0	146.13793103448276	0.0	0.012756315	-0.08642556	1.01855208	1.64808	-0.2289	0.10682	3185208.0	1776544760.170001	0.0	1.0	-1.0	-1.0	-1.0	-1.0	-1.0	-1.0	-1.0	-1.0	0.0	marker	opened-hand	Open	10	0418
-66258.22499999999	-52735.095	-102352.545	-17890.425	0.0	0.0	0.0	0.0	0.0	0.0	0.0	0.0	0.0	0.0	0.0	0.0	0.0	0.0	146.13793103448276	0.0	0.012756315	-0.08642556	1.01855208	1.64808	-0.2289	0.10682	3185209.0	1776544760.17001	0.0	1.0	-1.0	-1.0	-1.0	-1.0	-1.0	-1.0	-1.0	-1.0	0.0	marker	opened-hand	Open	10	0418
-66325.815	-52757.1	-102370.815	-17916.075	0.0	0.0	0.0	0.0	0.0	0.0	0.0	0.0	0.0	0.0	0.0	0.0	0.0	0.0	146.13793103448276	0.0	0.012756315	-0.08642556	1.01855208	1.64808	-0.2289	0.10682	3185210.0	1776544760.170023	0.0	1.0	-1.0	-1.0	-1.0	-1.0	-1.0	-1.0	-1.0	-1.0	0.0	marker	opened-hand	Open	10	0418
-66580.875	-52774.155	-102468.465	-17951.805	0.0	0.0	0.0	0.0	0.0	0.0	0.0	0.0	0.0	0.0	0.0	0.0	0.0	0.0	146.13793103448276	0.0	0.012756315	-0.08642556	1.01855208	1.64808	-0.2289	0.10682	3185211.0	1776544760.170033	0.0	1.0	-1.0	-1.0	-1.0	-1.0	-1.0	-1.0	-1.0	-1.0	0.0	marker	opened-hand	Open	10	0418
-66411.36	-52762.454999999994	-102293.55	-17752.77	0.0	0.0	0.0	0.0	0.0	0.0	0.0	0.0	0.0	0.0	0.0	0.0	0.0	0.0	146.13793103448276	0.0	0.012756315	-0.08642556	1.01855208	1.64808	-0.2289	0.10682	3185212.0	1776544760.170047	0.0	1.0	-1.0	-1.0	-1.0	-1.0	-1.0	-1.0	-1.0	-1.0	0.0	marker	opened-hand	Open	10	0418
-66330.495	-52762.229999999996	-102359.83499999999	-17848.035	0.0	0.0	0.0	0.0	0.0	0.0	0.0	0.0	0.0	0.0	0.0	0.0	0.0	0.0	146.13793103448276	0.0	0.012756315	-0.08642556	1.01855208	1.64808	-0.2289	0.10682	3185213.0	1776544760.170056	0.0	1.0	-1.0	-1.0	-1.0	-1.0	-1.0	-1.0	-1.0	-1.0	0.0	marker	opened-hand	Open	10	0418
-66409.83	-52762.454999999994	-102483.765	-17983.575	0.0	0.0	0.0	0.0	0.0	0.0	0.0	0.0	0.0	0.0	0.0	0.0	0.0	0.0	146.13793103448276	0.0	0.01806636	-0.08862282	1.015683435	1.89224	-0.27468	0.13734	3185214.0	1776544760.170071	0.0	1.0	-1.0	-1.0	-1.0	-1.0	-1.0	-1.0	-1.0	-1.0	0.0	marker	opened-hand	Open	10	0418
-66660.165	-52776.494999999995	-102680.685	-18201.105	0.0	0.0	0.0	0.0	0.0	0.0	0.0	0.0	0.0	0.0	0.0	0.0	0.0	0.0	146.13793103448276	0.0	0.01806636	-0.08862282	1.015683435	1.89224	-0.27468	0.13734	3185215.0	1776544760.17008	0.0	1.0	-1.0	-1.0	-1.0	-1.0	-1.0	-1.0	-1.0	-1.0	0.0	marker	opened-hand	Open	10	0418
-66551.625	-52781.354999999996	-102576.87	-18123.75	0.0	0.0	0.0	0.0	0.0	0.0	0.0	0.0	0.0	0.0	0.0	0.0	0.0	0.0	146.13793103448276	0.0	0.01806636	-0.08862282	1.015683435	1.89224	-0.27468	0.13734	3185216.0	1776544760.170095	0.0	1.0	-1.0	-1.0	-1.0	-1.0	-1.0	-1.0	-1.0	-1.0	0.0	marker	opened-hand	Open	10	0418
-66529.125	-52795.35	-102562.92	-18119.79	0.0	0.0	0.0	0.0	0.0	0.0	0.0	0.0	0.0	0.0	0.0	0.0	0.0	0.0	146.13793103448276	0.0	0.01806636	-0.08862282	1.015683435	1.89224	-0.27468	0.13734	3185217.0	1776544760.170104	0.0	1.0	-1.0	-1.0	-1.0	-1.0	-1.0	-1.0	-1.0	-1.0	0.0	marker	opened-hand	Open	10	0418
-66398.31	-52794.674999999996	-102429.495	-18005.579999999998	0.0	0.0	0.0	0.0	0.0	0.0	0.0	0.0	0.0	0.0	0.0	0.0	0.0	0.0	146.13793103448276	0.0	0.01806636	-0.08862282	1.015683435	1.89224	-0.27468	0.13734	3185218.0	1776544760.170116	0.0	1.0	-1.0	-1.0	-1.0	-1.0	-1.0	-1.0	-1.0	-1.0	0.0	marker	opened-hand	Open	10	0418
-66293.64	-52792.604999999996	-102329.90999999999	-17853.57	0.0	0.0	0.0	0.0	0.0	0.0	0.0	0.0	0.0	0.0	0.0	0.0	0.0	0.0	146.13793103448276	0.0	0.01806636	-0.08862282	1.015683435	1.89224	-0.27468	0.13734	3185219.0	1776544760.170126	0.0	1.0	-1.0	-1.0	-1.0	-1.0	-1.0	-1.0	-1.0	-1.0	0.0	marker	opened-hand	Open	10	0418
-66356.145	-52798.095	-102399.39	-17845.29	0.0	0.0	0.0	0.0	0.0	0.0	0.0	0.0	0.0	0.0	0.0	0.0	0.0	0.0	146.13793103448276	0.0	0.01806636	-0.08862282	1.015683435	1.89224	-0.27468	0.13734	3185220.0	1776544760.170139	0.0	1.0	-1.0	-1.0	-1.0	-1.0	-1.0	-1.0	-1.0	-1.0	0.0	marker	opened-hand	Open	10	0418
-66351.015	-52791.345	-102353.84999999999	-17838.315	0.0	0.0	0.0	0.0	0.0	0.0	0.0	0.0	0.0	0.0	0.0	0.0	0.0	0.0	146.13793103448276	0.0	0.01806636	-0.08862282	1.015683435	1.89224	-0.27468	0.13734	3185221.0	1776544760.170148	0.0	1.0	-1.0	-1.0	-1.0	-1.0	-1.0	-1.0	-1.0	-1.0	0.0	marker	opened-hand	Open	10	0418
-66594.735	-52808.085	-102551.985	-18030.465	0.0	0.0	0.0	0.0	0.0	0.0	0.0	0.0	0.0	0.0	0.0	0.0	0.0	0.0	146.13793103448276	0.0	0.01806636	-0.08862282	1.015683435	1.89224	-0.27468	0.13734	3185222.0	1776544760.17016	0.0	1.0	-1.0	-1.0	-1.0	-1.0	-1.0	-1.0	-1.0	-1.0	0.0	marker	opened-hand	Open	10	0418
-66582.855	-52808.895	-102534.65999999999	-18019.215	0.0	0.0	0.0	0.0	0.0	0.0	0.0	0.0	0.0	0.0	0.0	0.0	0.0	0.0	146.13793103448276	0.0	0.01806636	-0.08862282	1.015683435	1.89224	-0.27468	0.13734	3185223.0	1776544760.170169	0.0	1.0	-1.0	-1.0	-1.0	-1.0	-1.0	-1.0	-1.0	-1.0	0.0	marker	opened-hand	Open	10	0418
-66451.095	-52797.735	-102434.355	-17935.829999999998	0.0	0.0	0.0	0.0	0.0	0.0	0.0	0.0	0.0	0.0	0.0	0.0	0.0	0.0	146.13793103448276	0.0	0.02172846	-0.09167457	1.014951015	2.0448399999999998	-0.3815	0.30519999999999997	3185224.0	1776544760.170182	0.0	1.0	-1.0	-1.0	-1.0	-1.0	-1.0	-1.0	-1.0	-1.0	0.0	marker	opened-hand	Open	10	0418
-66430.89	-52796.43	-102461.08499999999	-17989.739999999998	0.0	0.0	0.0	0.0	0.0	0.0	0.0	0.0	0.0	0.0	0.0	0.0	0.0	0.0	146.13793103448276	0.0	0.02172846	-0.09167457	1.014951015	2.0448399999999998	-0.3815	0.30519999999999997	3185225.0	1776544760.170192	0.0	1.0	-1.0	-1.0	-1.0	-1.0	-1.0	-1.0	-1.0	-1.0	0.0	marker	opened-hand	Open	10	0418
-66292.2	-52782.075	-102323.43	-17888.985	0.0	0.0	0.0	0.0	0.0	0.0	0.0	0.0	0.0	0.0	0.0	0.0	0.0	0.0	146.13793103448276	0.0	0.02172846	-0.09167457	1.014951015	2.0448399999999998	-0.3815	0.30519999999999997	3185226.0	1776544760.170909	0.0	1.0	-1.0	-1.0	-1.0	-1.0	-1.0	-1.0	-1.0	-1.0	0.0	marker	opened-hand	Open	10	0418
-66389.265	-52784.415	-102307.095	-17832.195	0.0	0.0	0.0	0.0	0.0	0.0	0.0	0.0	0.0	0.0	0.0	0.0	0.0	0.0	146.13793103448276	0.0	0.02172846	-0.09167457	1.014951015	2.0448399999999998	-0.3815	0.30519999999999997	3185227.0	1776544760.170927	0.0	1.0	-1.0	-1.0	-1.0	-1.0	-1.0	-1.0	-1.0	-1.0	0.0	marker	opened-hand	Open	10	0418
-66511.845	-52794.585	-102431.565	-17939.79	0.0	0.0	0.0	0.0	0.0	0.0	0.0	0.0	0.0	0.0	0.0	0.0	0.0	0.0	146.13793103448276	0.0	0.02172846	-0.09167457	1.014951015	2.0448399999999998	-0.3815	0.30519999999999997	3185228.0	1776544760.177054	0.0	1.0	-1.0	-1.0	-1.0	-1.0	-1.0	-1.0	-1.0	-1.0	0.0	marker	opened-hand	Open	10	0418
-66478.23	-52787.115	-102476.385	-17964.63	0.0	0.0	0.0	0.0	0.0	0.0	0.0	0.0	0.0	0.0	0.0	0.0	0.0	0.0	146.13793103448276	0.0	0.02172846	-0.09167457	1.014951015	2.0448399999999998	-0.3815	0.30519999999999997	3185229.0	1776544760.177077	0.0	1.0	-1.0	-1.0	-1.0	-1.0	-1.0	-1.0	-1.0	-1.0	0.0	marker	opened-hand	Open	10	0418
-66464.19	-52793.145	-102532.72499999999	-18028.44	0.0	0.0	0.0	0.0	0.0	0.0	0.0	0.0	0.0	0.0	0.0	0.0	0.0	0.0	146.13793103448276	0.0	0.02172846	-0.09167457	1.014951015	2.0448399999999998	-0.3815	0.30519999999999997	3185230.0	1776544760.178865	0.0	1.0	-1.0	-1.0	-1.0	-1.0	-1.0	-1.0	-1.0	-1.0	0.0	marker	opened-hand	Open	10	0418
-66308.58	-52787.97	-102390.25499999999	-17894.835	0.0	0.0	0.0	0.0	0.0	0.0	0.0	0.0	0.0	0.0	0.0	0.0	0.0	0.0	146.13793103448276	0.0	0.02172846	-0.09167457	1.014951015	2.0448399999999998	-0.3815	0.30519999999999997	3185231.0	1776544760.178883	0.0	1.0	-1.0	-1.0	-1.0	-1.0	-1.0	-1.0	-1.0	-1.0	0.0	marker	opened-hand	Open	10	0418
-66339.72	-52791.57	-102360.825	-17865.989999999998	0.0	0.0	0.0	0.0	0.0	0.0	0.0	0.0	0.0	0.0	0.0	0.0	0.0	0.0	146.13793103448276	0.0	0.02172846	-0.09167457	1.014951015	2.0448399999999998	-0.3815	0.30519999999999997	3185232.0	1776544760.18318	0.0	1.0	-1.0	-1.0	-1.0	-1.0	-1.0	-1.0	-1.0	-1.0	0.0	marker	opened-hand	Open	10	0418
-66617.505	-52816.905	-102639.33	-18138.555	0.0	0.0	0.0	0.0	0.0	0.0	0.0	0.0	0.0	0.0	0.0	0.0	0.0	0.0	146.13793103448276	0.0	0.02172846	-0.09167457	1.014951015	2.0448399999999998	-0.3815	0.30519999999999997	3185233.0	1776544760.183211	0.0	1.0	-1.0	-1.0	-1.0	-1.0	-1.0	-1.0	-1.0	-1.0	0.0	marker	opened-hand	Open	10	0418
-66461.67	-52814.744999999995	-102511.89	-18025.649999999998	0.0	0.0	0.0	0.0	0.0	0.0	0.0	0.0	0.0	0.0	0.0	0.0	0.0	0.0	146.13793103448276	0.0	0.018859815000000002	-0.102721905	1.01501205	3.92182	-0.2289	-1.5412599999999999	3185234.0	1776544760.187309	0.0	1.0	-1.0	-1.0	-1.0	-1.0	-1.0	-1.0	-1.0	-1.0	0.0	marker	opened-hand	Open	10	0418
-66576.825	-52824.78	-102568.86	-18058.995	0.0	0.0	0.0	0.0	0.0	0.0	0.0	0.0	0.0	0.0	0.0	0.0	0.0	0.0	146.13793103448276	0.0	0.018859815000000002	-0.102721905	1.01501205	3.92182	-0.2289	-1.5412599999999999	3185235.0	1776544760.18733	0.0	1.0	-1.0	-1.0	-1.0	-1.0	-1.0	-1.0	-1.0	-1.0	0.0	marker	opened-hand	Open	10	0418
-66522.23999999999	-52815.284999999996	-102476.06999999999	-17978.399999999998	0.0	0.0	0.0	0.0	0.0	0.0	0.0	0.0	0.0	0.0	0.0	0.0	0.0	0.0	146.13793103448276	0.0	0.018859815000000002	-0.102721905	1.01501205	3.92182	-0.2289	-1.5412599999999999	3185236.0	1776544760.190898	0.0	1.0	-1.0	-1.0	-1.0	-1.0	-1.0	-1.0	-1.0	-1.0	0.0	marker	opened-hand	Open	10	0418
-66547.845	-52810.965	-102434.265	-17916.12	0.0	0.0	0.0	0.0	0.0	0.0	0.0	0.0	0.0	0.0	0.0	0.0	0.0	0.0	146.13793103448276	0.0	0.018859815000000002	-0.102721905	1.01501205	3.92182	-0.2289	-1.5412599999999999	3185237.0	1776544760.190915	0.0	1.0	-1.0	-1.0	-1.0	-1.0	-1.0	-1.0	-1.0	-1.0	0.0	marker	opened-hand	Open	10	0418
-66528.765	-52806.015	-102472.83	-17960.04	0.0	0.0	0.0	0.0	0.0	0.0	0.0	0.0	0.0	0.0	0.0	0.0	0.0	0.0	146.13793103448276	0.0	0.018859815000000002	-0.102721905	1.01501205	3.92182	-0.2289	-1.5412599999999999	3185238.0	1776544760.195453	0.0	1.0	-1.0	-1.0	-1.0	-1.0	-1.0	-1.0	-1.0	-1.0	0.0	marker	opened-hand	Open	10	0418
-66393.36	-52797.689999999995	-102418.69499999999	-17906.895	0.0	0.0	0.0	0.0	0.0	0.0	0.0	0.0	0.0	0.0	0.0	0.0	0.0	0.0	146.13793103448276	0.0	0.018859815000000002	-0.102721905	1.01501205	3.92182	-0.2289	-1.5412599999999999	3185239.0	1776544760.195473	0.0	1.0	-1.0	-1.0	-1.0	-1.0	-1.0	-1.0	-1.0	-1.0	0.0	marker	opened-hand	Open	10	0418
-66356.64	-52807.545	-102444.48	-17924.94	0.0	0.0	0.0	0.0	0.0	0.0	0.0	0.0	0.0	0.0	0.0	0.0	0.0	0.0	146.13793103448276	0.0	0.018859815000000002	-0.102721905	1.01501205	3.92182	-0.2289	-1.5412599999999999	3185240.0	1776544760.198923	0.0	1.0	-1.0	-1.0	-1.0	-1.0	-1.0	-1.0	-1.0	-1.0	0.0	marker	opened-hand	Open	10	0418
-66531.105	-52829.055	-102621.64499999999	-18115.425	0.0	0.0	0.0	0.0	0.0	0.0	0.0	0.0	0.0	0.0	0.0	0.0	0.0	0.0	146.13793103448276	0.0	0.018859815000000002	-0.102721905	1.01501205	3.92182	-0.2289	-1.5412599999999999	3185241.0	1776544760.198942	0.0	1.0	-1.0	-1.0	-1.0	-1.0	-1.0	-1.0	-1.0	-1.0	0.0	marker	opened-hand	Open	10	0418
-66567.33	-52837.064999999995	-102595.00499999999	-18123.93	0.0	0.0	0.0	0.0	0.0	0.0	0.0	0.0	0.0	0.0	0.0	0.0	0.0	0.0	146.13793103448276	0.0	0.018859815000000002	-0.102721905	1.01501205	3.92182	-0.2289	-1.5412599999999999	3185242.0	1776544760.202852	0.0	1.0	-1.0	-1.0	-1.0	-1.0	-1.0	-1.0	-1.0	-1.0	0.0	marker	opened-hand	Open	10	0418
-66552.345	-52833.6	-102563.01	-18115.785	0.0	0.0	0.0	0.0	0.0	0.0	0.0	0.0	0.0	0.0	0.0	0.0	0.0	0.0	146.13793103448276	0.0	0.018859815000000002	-0.102721905	1.01501205	3.92182	-0.2289	-1.5412599999999999	3185243.0	1776544760.202871	0.0	1.0	-1.0	-1.0	-1.0	-1.0	-1.0	-1.0	-1.0	-1.0	0.0	marker	opened-hand	Open	10	0418
-66555.27	-52829.28	-102573.495	-18079.649999999998	0.0	0.0	0.0	0.0	0.0	0.0	0.0	0.0	0.0	0.0	0.0	0.0	0.0	0.0	146.13793103448276	0.0	0.02087397	-0.10559055	1.0107396	5.7225	0.32045999999999997	-2.48738	3185244.0	1776544760.206854	0.0	1.0	-1.0	-1.0	-1.0	-1.0	-1.0	-1.0	-1.0	-1.0	0.0	marker	opened-hand	Open	10	0418
-66501.98999999999	-52807.454999999994	-102532.23	-18016.739999999998	0.0	0.0	0.0	0.0	0.0	0.0	0.0	0.0	0.0	0.0	0.0	0.0	0.0	0.0	146.13793103448276	0.0	0.02087397	-0.10559055	1.0107396	5.7225	0.32045999999999997	-2.48738	3185245.0	1776544760.206872	0.0	1.0	-1.0	-1.0	-1.0	-1.0	-1.0	-1.0	-1.0	-1.0	0.0	marker	opened-hand	Open	10	0418
-66530.97	-52797.915	-102588.39	-18082.26	0.0	0.0	0.0	0.0	0.0	0.0	0.0	0.0	0.0	0.0	0.0	0.0	0.0	0.0	146.13793103448276	0.0	0.02087397	-0.10559055	1.0107396	5.7225	0.32045999999999997	-2.48738	3185246.0	1776544760.306031	0.0	1.0	-1.0	-1.0	-1.0	-1.0	-1.0	-1.0	-1.0	-1.0	0.0	marker	opened-hand	Open	10	0418
-66548.385	-52792.92	-102571.65	-18061.695	0.0	0.0	0.0	0.0	0.0	0.0	0.0	0.0	0.0	0.0	0.0	0.0	0.0	0.0	146.13793103448276	0.0	0.02087397	-0.10559055	1.0107396	5.7225	0.32045999999999997	-2.48738	3185247.0	1776544760.3061	0.0	1.0	-1.0	-1.0	-1.0	-1.0	-1.0	-1.0	-1.0	-1.0	0.0	marker	opened-hand	Open	10	0418
-66412.485	-52784.415	-102429.495	-17931.42	0.0	0.0	0.0	0.0	0.0	0.0	0.0	0.0	0.0	0.0	0.0	0.0	0.0	0.0	146.13793103448276	0.0	0.02087397	-0.10559055	1.0107396	5.7225	0.32045999999999997	-2.48738	3185248.0	1776544760.306141	0.0	1.0	-1.0	-1.0	-1.0	-1.0	-1.0	-1.0	-1.0	-1.0	0.0	marker	opened-hand	Open	10	0418
-66201.885	-52767.63	-102180.64499999999	-17703.225	0.0	0.0	0.0	0.0	0.0	0.0	0.0	0.0	0.0	0.0	0.0	0.0	0.0	0.0	146.13793103448276	0.0	0.02087397	-0.10559055	1.0107396	5.7225	0.32045999999999997	-2.48738	3185249.0	1776544760.306161	0.0	1.0	-1.0	-1.0	-1.0	-1.0	-1.0	-1.0	-1.0	-1.0	0.0	marker	opened-hand	Open	10	0418
-66185.91	-52760.475	-102038.89499999999	-17567.55	0.0	0.0	0.0	0.0	0.0	0.0	0.0	0.0	0.0	0.0	0.0	0.0	0.0	0.0	146.13793103448276	0.0	0.02087397	-0.10559055	1.0107396	5.7225	0.32045999999999997	-2.48738	3185250.0	1776544760.306193	0.0	1.0	-1.0	-1.0	-1.0	-1.0	-1.0	-1.0	-1.0	-1.0	0.0	marker	opened-hand	Open	10	0418
-66477.645	-52797.465	-102483.135	-17984.295	0.0	0.0	0.0	0.0	0.0	0.0	0.0	0.0	0.0	0.0	0.0	0.0	0.0	0.0	146.13793103448276	0.0	0.02087397	-0.10559055	1.0107396	5.7225	0.32045999999999997	-2.48738	3185251.0	1776544760.306211	0.0	1.0	-1.0	-1.0	-1.0	-1.0	-1.0	-1.0	-1.0	-1.0	0.0	marker	opened-hand	Open	10	0418
-66497.265	-52814.924999999996	-102529.305	-18047.969999999998	0.0	0.0	0.0	0.0	0.0	0.0	0.0	0.0	0.0	0.0	0.0	0.0	0.0	0.0	146.13793103448276	0.0	0.02087397	-0.10559055	1.0107396	5.7225	0.32045999999999997	-2.48738	3185252.0	1776544760.306233	0.0	1.0	-1.0	-1.0	-1.0	-1.0	-1.0	-1.0	-1.0	-1.0	0.0	marker	opened-hand	Open	10	0418
-66456.72	-52812.134999999995	-102307.545	-17847.54	0.0	0.0	0.0	0.0	0.0	0.0	0.0	0.0	0.0	0.0	0.0	0.0	0.0	0.0	146.13793103448276	0.0	0.02087397	-0.10559055	1.0107396	5.7225	0.32045999999999997	-2.48738	3185253.0	1776544760.306251	0.0	1.0	-1.0	-1.0	-1.0	-1.0	-1.0	-1.0	-1.0	-1.0	0.0	marker	opened-hand	Open	10	0418
-66575.655	-52816.905	-102407.715	-17960.309999999998	0.0	0.0	0.0	0.0	0.0	0.0	0.0	0.0	0.0	0.0	0.0	0.0	0.0	0.0	146.13793103448276	0.0	0.018859815000000002	-0.096618405	1.01269272	5.31048	0.6714399999999999	-1.46496	3185254.0	1776544760.30631	0.0	1.0	-1.0	-1.0	-1.0	-1.0	-1.0	-1.0	-1.0	-1.0	0.0	marker	opened-hand	Open	10	0418
-66730.59	-52825.454999999994	-102667.5	-18122.355	0.0	0.0	0.0	0.0	0.0	0.0	0.0	0.0	0.0	0.0	0.0	0.0	0.0	0.0	146.13793103448276	0.0	0.018859815000000002	-0.096618405	1.01269272	5.31048	0.6714399999999999	-1.46496	3185255.0	1776544760.306336	0.0	1.0	-1.0	-1.0	-1.0	-1.0	-1.0	-1.0	-1.0	-1.0	0.0	marker	opened-hand	Open	10	0418
-66635.235	-52827.525	-102785.625	-18228.87	0.0	0.0	0.0	0.0	0.0	0.0	0.0	0.0	0.0	0.0	0.0	0.0	0.0	0.0	146.13793103448276	0.0	0.018859815000000002	-0.096618405	1.01269272	5.31048	0.6714399999999999	-1.46496	3185256.0	1776544760.306362	0.0	1.0	-1.0	-1.0	-1.0	-1.0	-1.0	-1.0	-1.0	-1.0	0.0	marker	opened-hand	Open	10	0418
-66469.815	-52827.21	-102663.26999999999	-18157.815	0.0	0.0	0.0	0.0	0.0	0.0	0.0	0.0	0.0	0.0	0.0	0.0	0.0	0.0	146.13793103448276	0.0	0.018859815000000002	-0.096618405	1.01269272	5.31048	0.6714399999999999	-1.46496	3185257.0	1776544760.306437	0.0	1.0	-1.0	-1.0	-1.0	-1.0	-1.0	-1.0	-1.0	-1.0	0.0	marker	opened-hand	Open	10	0418
-66209.84999999999	-52805.79	-102274.83	-17766.045	0.0	0.0	0.0	0.0	0.0	0.0	0.0	0.0	0.0	0.0	0.0	0.0	0.0	0.0	146.13793103448276	0.0	0.018859815000000002	-0.096618405	1.01269272	5.31048	0.6714399999999999	-1.46496	3185258.0	1776544760.306484	0.0	1.0	-1.0	-1.0	-1.0	-1.0	-1.0	-1.0	-1.0	-1.0	0.0	marker	opened-hand	Open	10	0418
-66177.98999999999	-52813.079999999994	-102140.09999999999	-17671.5	0.0	0.0	0.0	0.0	0.0	0.0	0.0	0.0	0.0	0.0	0.0	0.0	0.0	0.0	146.13793103448276	0.0	0.018859815000000002	-0.096618405	1.01269272	5.31048	0.6714399999999999	-1.46496	3185259.0	1776544760.306506	0.0	1.0	-1.0	-1.0	-1.0	-1.0	-1.0	-1.0	-1.0	-1.0	0.0	marker	opened-hand	Open	10	0418
-66352.005	-52830.945	-102303.495	-17820.495	0.0	0.0	0.0	0.0	0.0	0.0	0.0	0.0	0.0	0.0	0.0	0.0	0.0	0.0	146.13793103448276	0.0	0.018859815000000002	-0.096618405	1.01269272	5.31048	0.6714399999999999	-1.46496	3185260.0	1776544760.306552	0.0	1.0	-1.0	-1.0	-1.0	-1.0	-1.0	-1.0	-1.0	-1.0	0.0	marker	opened-hand	Open	10	0418
-66460.185	-52834.454999999994	-102493.70999999999	-18004.95	0.0	0.0	0.0	0.0	0.0	0.0	0.0	0.0	0.0	0.0	0.0	0.0	0.0	0.0	146.13793103448276	0.0	0.018859815000000002	-0.096618405	1.01269272	5.31048	0.6714399999999999	-1.46496	3185261.0	1776544760.306604	0.0	1.0	-1.0	-1.0	-1.0	-1.0	-1.0	-1.0	-1.0	-1.0	0.0	marker	opened-hand	Open	10	0418
-66333.285	-52827.345	-102411.675	-17908.29	0.0	0.0	0.0	0.0	0.0	0.0	0.0	0.0	0.0	0.0	0.0	0.0	0.0	0.0	146.13793103448276	0.0	0.018859815000000002	-0.096618405	1.01269272	5.31048	0.6714399999999999	-1.46496	3185262.0	1776544760.306674	0.0	1.0	-1.0	-1.0	-1.0	-1.0	-1.0	-1.0	-1.0	-1.0	0.0	marker	opened-hand	Open	10	0418
-66065.67	-52805.43	-102082.31999999999	-17598.42	0.0	0.0	0.0	0.0	0.0	0.0	0.0	0.0	0.0	0.0	0.0	0.0	0.0	0.0	146.13793103448276	0.0	0.018859815000000002	-0.096618405	1.01269272	5.31048	0.6714399999999999	-1.46496	3185263.0	1776544760.306698	0.0	1.0	-1.0	-1.0	-1.0	-1.0	-1.0	-1.0	-1.0	-1.0	0.0	marker	opened-hand	Open	10	0418
-66442.72499999999	-52824.915	-102397.23	-17872.605	0.0	0.0	0.0	0.0	0.0	0.0	0.0	0.0	0.0	0.0	0.0	0.0	0.0	0.0	146.13793103448276	0.0	0.01599117	-0.08166483000000001	1.0119603	-0.07629999999999999	-0.03052	-0.763	3185264.0	1776544760.306723	0.0	1.0	-1.0	-1.0	-1.0	-1.0	-1.0	-1.0	-1.0	-1.0	0.0	marker	opened-hand	Open	10	0418
-66689.28	-52837.244999999995	-102682.305	-18109.934999999998	0.0	0.0	0.0	0.0	0.0	0.0	0.0	0.0	0.0	0.0	0.0	0.0	0.0	0.0	146.13793103448276	0.0	0.01599117	-0.08166483000000001	1.0119603	-0.07629999999999999	-0.03052	-0.763	3185265.0	1776544760.306741	0.0	1.0	-1.0	-1.0	-1.0	-1.0	-1.0	-1.0	-1.0	-1.0	0.0	marker	opened-hand	Open	10	0418
-66842.64	-52852.229999999996	-102953.97	-18470.79	0.0	0.0	0.0	0.0	0.0	0.0	0.0	0.0	0.0	0.0	0.0	0.0	0.0	0.0	146.13793103448276	0.0	0.01599117	-0.08166483000000001	1.0119603	-0.07629999999999999	-0.03052	-0.763	3185266.0	1776544760.306763	0.0	1.0	-1.0	-1.0	-1.0	-1.0	-1.0	-1.0	-1.0	-1.0	0.0	marker	opened-hand	Open	10	0418
-66579.39	-52841.655	-102732.075	-18271.844999999998	0.0	0.0	0.0	0.0	0.0	0.0	0.0	0.0	0.0	0.0	0.0	0.0	0.0	0.0	146.13793103448276	0.0	0.01599117	-0.08166483000000001	1.0119603	-0.07629999999999999	-0.03052	-0.763	3185267.0	1776544760.30678	0.0	1.0	-1.0	-1.0	-1.0	-1.0	-1.0	-1.0	-1.0	-1.0	0.0	marker	opened-hand	Open	10	0418
-66330.765	-52832.159999999996	-102439.305	-17972.774999999998	0.0	0.0	0.0	0.0	0.0	0.0	0.0	0.0	0.0	0.0	0.0	0.0	0.0	0.0	146.13793103448276	0.0	0.01599117	-0.08166483000000001	1.0119603	-0.07629999999999999	-0.03052	-0.763	3185268.0	1776544760.306803	0.0	1.0	-1.0	-1.0	-1.0	-1.0	-1.0	-1.0	-1.0	-1.0	0.0	marker	opened-hand	Open	10	0418
-66492.495	-52829.189999999995	-102353.04	-17854.469999999998	0.0	0.0	0.0	0.0	0.0	0.0	0.0	0.0	0.0	0.0	0.0	0.0	0.0	0.0	146.13793103448276	0.0	0.01599117	-0.08166483000000001	1.0119603	-0.07629999999999999	-0.03052	-0.763	3185269.0	1776544760.30682	0.0	1.0	-1.0	-1.0	-1.0	-1.0	-1.0	-1.0	-1.0	-1.0	0.0	marker	opened-hand	Open	10	0418
-66641.58	-52828.38	-102530.655	-18024.12	0.0	0.0	0.0	0.0	0.0	0.0	0.0	0.0	0.0	0.0	0.0	0.0	0.0	0.0	146.13793103448276	0.0	0.01599117	-0.08166483000000001	1.0119603	-0.07629999999999999	-0.03052	-0.763	3185270.0	1776544760.306842	0.0	1.0	-1.0	-1.0	-1.0	-1.0	-1.0	-1.0	-1.0	-1.0	0.0	marker	opened-hand	Open	10	0418
-66644.145	-52835.67	-102663.18	-18145.305	0.0	0.0	0.0	0.0	0.0	0.0	0.0	0.0	0.0	0.0	0.0	0.0	0.0	0.0	146.13793103448276	0.0	0.01599117	-0.08166483000000001	1.0119603	-0.07629999999999999	-0.03052	-0.763	3185271.0	1776544760.306854	0.0	1.0	-1.0	-1.0	-1.0	-1.0	-1.0	-1.0	-1.0	-1.0	0.0	marker	opened-hand	Open	10	0418
-66524.805	-52837.604999999996	-102597.885	-18110.52	0.0	0.0	0.0	0.0	0.0	0.0	0.0	0.0	0.0	0.0	0.0	0.0	0.0	0.0	146.13793103448276	0.0	0.01599117	-0.08166483000000001	1.0119603	-0.07629999999999999	-0.03052	-0.763	3185272.0	1776544760.306871	0.0	1.0	-1.0	-1.0	-1.0	-1.0	-1.0	-1.0	-1.0	-1.0	0.0	marker	opened-hand	Open	10	0418
-66434.58	-52820.865	-102398.94	-17939.745	0.0	0.0	0.0	0.0	0.0	0.0	0.0	0.0	0.0	0.0	0.0	0.0	0.0	0.0	146.13793103448276	0.0	0.01599117	-0.08166483000000001	1.0119603	-0.07629999999999999	-0.03052	-0.763	3185273.0	1776544760.306883	0.0	1.0	-1.0	-1.0	-1.0	-1.0	-1.0	-1.0	-1.0	-1.0	0.0	marker	opened-hand	Open	10	0418
-66432.78	-52813.665	-102351.64499999999	-17893.844999999998	0.0	0.0	0.0	0.0	0.0	0.0	0.0	0.0	0.0	0.0	0.0	0.0	0.0	0.0	146.13793103448276	0.0	0.02038569	-0.08264139	1.0152561900000001	1.03768	-0.15259999999999999	0.0	3185274.0	1776544760.3069	0.0	1.0	-1.0	-1.0	-1.0	-1.0	-1.0	-1.0	-1.0	-1.0	0.0	marker	opened-hand	Open	10	0418
-66453.435	-52821.405	-102344.265	-17831.07	0.0	0.0	0.0	0.0	0.0	0.0	0.0	0.0	0.0	0.0	0.0	0.0	0.0	0.0	146.13793103448276	0.0	0.02038569	-0.08264139	1.0152561900000001	1.03768	-0.15259999999999999	0.0	3185275.0	1776544760.306912	0.0	1.0	-1.0	-1.0	-1.0	-1.0	-1.0	-1.0	-1.0	-1.0	0.0	marker	opened-hand	Open	10	0418
-66209.4	-52818.39	-102222.9	-17698.545	0.0	0.0	0.0	0.0	0.0	0.0	0.0	0.0	0.0	0.0	0.0	0.0	0.0	0.0	146.13793103448276	0.0	0.02038569	-0.08264139	1.0152561900000001	1.03768	-0.15259999999999999	0.0	3185276.0	1776544760.306931	0.0	1.0	-1.0	-1.0	-1.0	-1.0	-1.0	-1.0	-1.0	-1.0	0.0	marker	opened-hand	Open	10	0418
-66389.48999999999	-52833.869999999995	-102456.09	-17961.03	0.0	0.0	0.0	0.0	0.0	0.0	0.0	0.0	0.0	0.0	0.0	0.0	0.0	0.0	146.13793103448276	0.0	0.02038569	-0.08264139	1.0152561900000001	1.03768	-0.15259999999999999	0.0	3185277.0	1776544760.306944	0.0	1.0	-1.0	-1.0	-1.0	-1.0	-1.0	-1.0	-1.0	-1.0	0.0	marker	opened-hand	Open	10	0418
-66307.185	-52813.665	-102229.69499999999	-17771.94	0.0	0.0	0.0	0.0	0.0	0.0	0.0	0.0	0.0	0.0	0.0	0.0	0.0	0.0	146.13793103448276	0.0	0.02038569	-0.08264139	1.0152561900000001	1.03768	-0.15259999999999999	0.0	3185278.0	1776544760.30696	0.0	1.0	-1.0	-1.0	-1.0	-1.0	-1.0	-1.0	-1.0	-1.0	0.0	marker	opened-hand	Open	10	0418
-66417.345	-52800.119999999995	-102377.295	-17840.114999999998	0.0	0.0	0.0	0.0	0.0	0.0	0.0	0.0	0.0	0.0	0.0	0.0	0.0	0.0	146.13793103448276	0.0	0.02038569	-0.08264139	1.0152561900000001	1.03768	-0.15259999999999999	0.0	3185279.0	1776544760.306972	0.0	1.0	-1.0	-1.0	-1.0	-1.0	-1.0	-1.0	-1.0	-1.0	0.0	marker	opened-hand	Open	10	0418
-66554.45999999999	-52795.395	-102617.64	-18067.005	0.0	0.0	0.0	0.0	0.0	0.0	0.0	0.0	0.0	0.0	0.0	0.0	0.0	0.0	146.13793103448276	0.0	0.02038569	-0.08264139	1.0152561900000001	1.03768	-0.15259999999999999	0.0	3185280.0	1776544760.306988	0.0	1.0	-1.0	-1.0	-1.0	-1.0	-1.0	-1.0	-1.0	-1.0	0.0	marker	opened-hand	Open	10	0418
-66459.915	-52789.365	-102577.40999999999	-18112.59	0.0	0.0	0.0	0.0	0.0	0.0	0.0	0.0	0.0	0.0	0.0	0.0	0.0	0.0	146.13793103448276	0.0	0.02038569	-0.08264139	1.0152561900000001	1.03768	-0.15259999999999999	0.0	3185281.0	1776544760.307042	0.0	1.0	-1.0	-1.0	-1.0	-1.0	-1.0	-1.0	-1.0	-1.0	0.0	marker	opened-hand	Open	10	0418
-66582.09	-52796.655	-102629.06999999999	-18162.315	0.0	0.0	0.0	0.0	0.0	0.0	0.0	0.0	0.0	0.0	0.0	0.0	0.0	0.0	146.13793103448276	0.0	0.02038569	-0.08264139	1.0152561900000001	1.03768	-0.15259999999999999	0.0	3185282.0	1776544760.307092	0.0	1.0	-1.0	-1.0	-1.0	-1.0	-1.0	-1.0	-1.0	-1.0	0.0	marker	opened-hand	Open	10	0418
-66543.39	-52789.095	-102452.22	-17978.895	0.0	0.0	0.0	0.0	0.0	0.0	0.0	0.0	0.0	0.0	0.0	0.0	0.0	0.0	146.13793103448276	0.0	0.02038569	-0.08264139	1.0152561900000001	1.03768	-0.15259999999999999	0.0	3185283.0	1776544760.307107	0.0	1.0	-1.0	-1.0	-1.0	-1.0	-1.0	-1.0	-1.0	-1.0	0.0	marker	opened-hand	Open	10	0418
-66460.095	-52792.29	-102392.86499999999	-17878.184999999998	0.0	0.0	0.0	0.0	0.0	0.0	0.0	0.0	0.0	0.0	0.0	0.0	0.0	0.0	146.13793103448276	0.0	0.020629830000000002	-0.09417700500000001	1.017392415	2.5484199999999997	-0.06104	-0.82404	3185284.0	1776544760.307123	0.0	1.0	-1.0	-1.0	-1.0	-1.0	-1.0	-1.0	-1.0	-1.0	0.0	marker	opened-hand	Open	10	0418
-66391.875	-52758.945	-102550.05	-18019.665	0.0	0.0	0.0	0.0	0.0	0.0	0.0	0.0	0.0	0.0	0.0	0.0	0.0	0.0	146.13793103448276	0.0	0.020629830000000002	-0.09417700500000001	1.017392415	2.5484199999999997	-0.06104	-0.82404	3185285.0	1776544760.307136	0.0	1.0	-1.0	-1.0	-1.0	-1.0	-1.0	-1.0	-1.0	-1.0	0.0	marker	opened-hand	Open	10	0418
-66159.315	-52714.89	-102312.315	-17828.505	0.0	0.0	0.0	0.0	0.0	0.0	0.0	0.0	0.0	0.0	0.0	0.0	0.0	0.0	146.13793103448276	0.0	0.020629830000000002	-0.09417700500000001	1.017392415	2.5484199999999997	-0.06104	-0.82404	3185286.0	1776544760.307189	0.0	1.0	-1.0	-1.0	-1.0	-1.0	-1.0	-1.0	-1.0	-1.0	0.0	marker	opened-hand	Open	10	0418
-66387.645	-52730.82	-102559.635	-18063.315	0.0	0.0	0.0	0.0	0.0	0.0	0.0	0.0	0.0	0.0	0.0	0.0	0.0	0.0	146.13793103448276	0.0	0.020629830000000002	-0.09417700500000001	1.017392415	2.5484199999999997	-0.06104	-0.82404	3185287.0	1776544760.307208	0.0	1.0	-1.0	-1.0	-1.0	-1.0	-1.0	-1.0	-1.0	-1.0	0.0	marker	opened-hand	Open	10	0418
-66560.715	-52730.055	-102648.375	-18118.485	0.0	0.0	0.0	0.0	0.0	0.0	0.0	0.0	0.0	0.0	0.0	0.0	0.0	0.0	146.13793103448276	0.0	0.020629830000000002	-0.09417700500000001	1.017392415	2.5484199999999997	-0.06104	-0.82404	3185288.0	1776544760.307227	0.0	1.0	-1.0	-1.0	-1.0	-1.0	-1.0	-1.0	-1.0	-1.0	0.0	marker	opened-hand	Open	10	0418
-66510.98999999999	-52706.7	-102508.605	-17988.795	0.0	0.0	0.0	0.0	0.0	0.0	0.0	0.0	0.0	0.0	0.0	0.0	0.0	0.0	146.27586206896555	0.0	0.020629830000000002	-0.09417700500000001	1.017392415	2.5484199999999997	-0.06104	-0.82404	3185289.0	1776544760.307241	0.0	1.0	-1.0	-1.0	-1.0	-1.0	-1.0	-1.0	-1.0	-1.0	0.0	marker	opened-hand	Open	10	0418
-66492.81	-52696.619999999995	-102307.095	-17757.495	0.0	0.0	0.0	0.0	0.0	0.0	0.0	0.0	0.0	0.0	0.0	0.0	0.0	0.0	146.27586206896555	0.0	0.020629830000000002	-0.09417700500000001	1.017392415	2.5484199999999997	-0.06104	-0.82404	3185290.0	1776544760.307257	0.0	1.0	-1.0	-1.0	-1.0	-1.0	-1.0	-1.0	-1.0	-1.0	0.0	marker	opened-hand	Open	10	0418
-66634.425	-52702.29	-102476.925	-17935.38	0.0	0.0	0.0	0.0	0.0	0.0	0.0	0.0	0.0	0.0	0.0	0.0	0.0	0.0	146.27586206896555	0.0	0.020629830000000002	-0.09417700500000001	1.017392415	2.5484199999999997	-0.06104	-0.82404	3185291.0	1776544760.307271	0.0	1.0	-1.0	-1.0	-1.0	-1.0	-1.0	-1.0	-1.0	-1.0	0.0	marker	opened-hand	Open	10	0418
-66552.435	-52693.244999999995	-102533.625	-18028.755	0.0	0.0	0.0	0.0	0.0	0.0	0.0	0.0	0.0	0.0	0.0	0.0	0.0	0.0	146.27586206896555	0.0	0.020629830000000002	-0.09417700500000001	1.017392415	2.5484199999999997	-0.06104	-0.82404	3185292.0	1776544760.307287	0.0	1.0	-1.0	-1.0	-1.0	-1.0	-1.0	-1.0	-1.0	-1.0	0.0	marker	opened-hand	Open	10	0418
-66440.61	-52684.56	-102461.04	-17976.69	0.0	0.0	0.0	0.0	0.0	0.0	0.0	0.0	0.0	0.0	0.0	0.0	0.0	0.0	146.27586206896555	0.0	0.020629830000000002	-0.09417700500000001	1.017392415	2.5484199999999997	-0.06104	-0.82404	3185293.0	1776544760.3073	0.0	1.0	-1.0	-1.0	-1.0	-1.0	-1.0	-1.0	-1.0	-1.0	0.0	marker	opened-hand	Open	10	0418
-66598.92	-52704.494999999995	-102687.25499999999	-18221.579999999998	0.0	0.0	0.0	0.0	0.0	0.0	0.0	0.0	0.0	0.0	0.0	0.0	0.0	0.0	146.27586206896555	0.0	0.018493605	-0.0939939	1.01586654	3.52506	-0.2289	-0.82404	3185294.0	1776544760.307692	0.0	1.0	-1.0	-1.0	-1.0	-1.0	-1.0	-1.0	-1.0	-1.0	0.0	marker	opened-hand	Open	10	0418
-66519.94499999999	-52697.295	-102646.845	-18177.3	0.0	0.0	0.0	0.0	0.0	0.0	0.0	0.0	0.0	0.0	0.0	0.0	0.0	0.0	146.27586206896555	0.0	0.018493605	-0.0939939	1.01586654	3.52506	-0.2289	-0.82404	3185295.0	1776544760.307713	0.0	1.0	-1.0	-1.0	-1.0	-1.0	-1.0	-1.0	-1.0	-1.0	0.0	marker	opened-hand	Open	10	0418
-66439.17	-52673.759999999995	-102470.04	-17979.84	0.0	0.0	0.0	0.0	0.0	0.0	0.0	0.0	0.0	0.0	0.0	0.0	0.0	0.0	146.27586206896555	0.0	0.018493605	-0.0939939	1.01586654	3.52506	-0.2289	-0.82404	3185296.0	1776544760.311321	0.0	1.0	-1.0	-1.0	-1.0	-1.0	-1.0	-1.0	-1.0	-1.0	0.0	marker	opened-hand	Open	10	0418
-66225.645	-52645.77	-102209.58	-17758.844999999998	0.0	0.0	0.0	0.0	0.0	0.0	0.0	0.0	0.0	0.0	0.0	0.0	0.0	0.0	146.27586206896555	0.0	0.018493605	-0.0939939	1.01586654	3.52506	-0.2289	-0.82404	3185297.0	1776544760.311344	0.0	1.0	-1.0	-1.0	-1.0	-1.0	-1.0	-1.0	-1.0	-1.0	0.0	marker	opened-hand	Open	10	0418
-66326.265	-52657.064999999995	-102278.43	-17782.425	0.0	0.0	0.0	0.0	0.0	0.0	0.0	0.0	0.0	0.0	0.0	0.0	0.0	0.0	146.27586206896555	0.0	0.018493605	-0.0939939	1.01586654	3.52506	-0.2289	-0.82404	3185298.0	1776544760.31534	0.0	1.0	-1.0	-1.0	-1.0	-1.0	-1.0	-1.0	-1.0	-1.0	0.0	marker	opened-hand	Open	10	0418
-66477.645	-52673.354999999996	-102490.69499999999	-17946.765	0.0	0.0	0.0	0.0	0.0	0.0	0.0	0.0	0.0	0.0	0.0	0.0	0.0	0.0	146.27586206896555	0.0	0.018493605	-0.0939939	1.01586654	3.52506	-0.2289	-0.82404	3185299.0	1776544760.315357	0.0	1.0	-1.0	-1.0	-1.0	-1.0	-1.0	-1.0	-1.0	-1.0	0.0	marker	opened-hand	Open	10	0418
-66617.055	-52693.695	-102637.845	-18118.215	0.0	0.0	0.0	0.0	0.0	0.0	0.0	0.0	0.0	0.0	0.0	0.0	0.0	0.0	146.27586206896555	0.0	0.018493605	-0.0939939	1.01586654	3.52506	-0.2289	-0.82404	3185300.0	1776544760.319392	0.0	1.0	-1.0	-1.0	-1.0	-1.0	-1.0	-1.0	-1.0	-1.0	0.0	marker	opened-hand	Open	10	0418
-66574.44	-52703.415	-102588.345	-18109.395	0.0	0.0	0.0	0.0	0.0	0.0	0.0	0.0	0.0	0.0	0.0	0.0	0.0	0.0	146.27586206896555	0.0	0.018493605	-0.0939939	1.01586654	3.52506	-0.2289	-0.82404	3185301.0	1776544760.319407	0.0	1.0	-1.0	-1.0	-1.0	-1.0	-1.0	-1.0	-1.0	-1.0	0.0	marker	opened-hand	Open	10	0418
-66193.515	-52676.28	-102184.47	-17735.175	0.0	0.0	0.0	0.0	0.0	0.0	0.0	0.0	0.0	0.0	0.0	0.0	0.0	0.0	146.27586206896555	0.0	0.018493605	-0.0939939	1.01586654	3.52506	-0.2289	-0.82404	3185302.0	1776544760.323401	0.0	1.0	-1.0	-1.0	-1.0	-1.0	-1.0	-1.0	-1.0	-1.0	0.0	marker	opened-hand	Open	10	0418
-66436.965	-52682.49	-102409.33499999999	-17915.085	0.0	0.0	0.0	0.0	0.0	0.0	0.0	0.0	0.0	0.0	0.0	0.0	0.0	0.0	146.27586206896555	0.0	0.018493605	-0.0939939	1.01586654	3.52506	-0.2289	-0.82404	3185303.0	1776544760.323416	0.0	1.0	-1.0	-1.0	-1.0	-1.0	-1.0	-1.0	-1.0	-1.0	0.0	marker	opened-hand	Open	10	0418
-66698.55	-52688.384999999995	-102706.875	-18169.11	0.0	0.0	0.0	0.0	0.0	0.0	0.0	0.0	0.0	0.0	0.0	0.0	0.0	0.0	146.27586206896555	0.0	0.01782222	-0.09472632	1.0141575600000001	2.60946	0.06104	-0.62566	3185304.0	1776544760.328265	0.0	1.0	-1.0	-1.0	-1.0	-1.0	-1.0	-1.0	-1.0	-1.0	0.0	marker	opened-hand	Open	10	0418
-66586.545	-52677.45	-102630.19499999999	-18092.61	0.0	0.0	0.0	0.0	0.0	0.0	0.0	0.0	0.0	0.0	0.0	0.0	0.0	0.0	146.27586206896555	0.0	0.01782222	-0.09472632	1.0141575600000001	2.60946	0.06104	-0.62566	3185305.0	1776544760.328284	0.0	1.0	-1.0	-1.0	-1.0	-1.0	-1.0	-1.0	-1.0	-1.0	0.0	marker	opened-hand	Open	10	0418
-66551.04	-52685.145	-102558.465	-18050.355	0.0	0.0	0.0	0.0	0.0	0.0	0.0	0.0	0.0	0.0	0.0	0.0	0.0	0.0	146.27586206896555	0.0	0.01782222	-0.09472632	1.0141575600000001	2.60946	0.06104	-0.62566	3185306.0	1776544760.331304	0.0	1.0	-1.0	-1.0	-1.0	-1.0	-1.0	-1.0	-1.0	-1.0	0.0	marker	opened-hand	Open	10	0418
-66362.44499999999	-52674.84	-102377.25	-17856.989999999998	0.0	0.0	0.0	0.0	0.0	0.0	0.0	0.0	0.0	0.0	0.0	0.0	0.0	0.0	146.27586206896555	0.0	0.01782222	-0.09472632	1.0141575600000001	2.60946	0.06104	-0.62566	3185307.0	1776544760.331332	0.0	1.0	-1.0	-1.0	-1.0	-1.0	-1.0	-1.0	-1.0	-1.0	0.0	marker	opened-hand	Open	10	0418
-66331.845	-52676.549999999996	-102292.78499999999	-17753.579999999998	0.0	0.0	0.0	0.0	0.0	0.0	0.0	0.0	0.0	0.0	0.0	0.0	0.0	0.0	146.27586206896555	0.0	0.01782222	-0.09472632	1.0141575600000001	2.60946	0.06104	-0.62566	3185308.0	1776544760.335945	0.0	1.0	-1.0	-1.0	-1.0	-1.0	-1.0	-1.0	-1.0	-1.0	0.0	marker	opened-hand	Open	10	0418
-66557.205	-52703.505	-102509.86499999999	-17967.149999999998	0.0	0.0	0.0	0.0	0.0	0.0	0.0	0.0	0.0	0.0	0.0	0.0	0.0	0.0	146.27586206896555	0.0	0.01782222	-0.09472632	1.0141575600000001	2.60946	0.06104	-0.62566	3185309.0	1776544760.335959	0.0	1.0	-1.0	-1.0	-1.0	-1.0	-1.0	-1.0	-1.0	-1.0	0.0	marker	opened-hand	Open	10	0418
-66654.315	-52720.064999999995	-102612.42	-18094.005	0.0	0.0	0.0	0.0	0.0	0.0	0.0	0.0	0.0	0.0	0.0	0.0	0.0	0.0	146.27586206896555	0.0	0.01782222	-0.09472632	1.0141575600000001	2.60946	0.06104	-0.62566	3185310.0	1776544760.434196	0.0	1.0	-1.0	-1.0	-1.0	-1.0	-1.0	-1.0	-1.0	-1.0	0.0	marker	opened-hand	Open	10	0418
-66476.61	-52715.7	-102452.89499999999	-17960.895	0.0	0.0	0.0	0.0	0.0	0.0	0.0	0.0	0.0	0.0	0.0	0.0	0.0	0.0	146.27586206896555	0.0	0.01782222	-0.09472632	1.0141575600000001	2.60946	0.06104	-0.62566	3185311.0	1776544760.434229	0.0	1.0	-1.0	-1.0	-1.0	-1.0	-1.0	-1.0	-1.0	-1.0	0.0	marker	opened-hand	Open	10	0418
-66242.655	-52689.375	-102266.685	-17793.855	0.0	0.0	0.0	0.0	0.0	0.0	0.0	0.0	0.0	0.0	0.0	0.0	0.0	0.0	146.27586206896555	0.0	0.01782222	-0.09472632	1.0141575600000001	2.60946	0.06104	-0.62566	3185312.0	1776544760.434265	0.0	1.0	-1.0	-1.0	-1.0	-1.0	-1.0	-1.0	-1.0	-1.0	0.0	marker	opened-hand	Open	10	0418
-66455.37	-52600.365	-102448.62	-17971.965	0.0	0.0	0.0	0.0	0.0	0.0	0.0	0.0	0.0	0.0	0.0	0.0	0.0	0.0	146.27586206896555	0.0	0.01782222	-0.09472632	1.0141575600000001	2.60946	0.06104	-0.62566	3185313.0	1776544760.434285	0.0	1.0	-1.0	-1.0	-1.0	-1.0	-1.0	-1.0	-1.0	-1.0	0.0	marker	opened-hand	Open	10	0418
-66579.84	-52576.29	-102628.98	-18093.42	0.0	0.0	0.0	0.0	0.0	0.0	0.0	0.0	0.0	0.0	0.0	0.0	0.0	0.0	146.27586206896555	0.0	0.01879878	-0.09851049	1.0119603	4.01338	-0.06104	-0.47306	3185314.0	1776544760.434308	0.0	1.0	-1.0	-1.0	-1.0	-1.0	-1.0	-1.0	-1.0	-1.0	0.0	marker	opened-hand	Open	10	0418
-66439.755	-52576.604999999996	-102584.43	-18059.805	0.0	0.0	0.0	0.0	0.0	0.0	0.0	0.0	0.0	0.0	0.0	0.0	0.0	0.0	146.27586206896555	0.0	0.01879878	-0.09851049	1.0119603	4.01338	-0.06104	-0.47306	3185315.0	1776544760.434327	0.0	1.0	-1.0	-1.0	-1.0	-1.0	-1.0	-1.0	-1.0	-1.0	0.0	marker	opened-hand	Open	10	0418
-66363.20999999999	-52577.189999999995	-102365.14499999999	-17878.77	0.0	0.0	0.0	0.0	0.0	0.0	0.0	0.0	0.0	0.0	0.0	0.0	0.0	0.0	146.27586206896555	0.0	0.01879878	-0.09851049	1.0119603	4.01338	-0.06104	-0.47306	3185316.0	1776544760.434348	0.0	1.0	-1.0	-1.0	-1.0	-1.0	-1.0	-1.0	-1.0	-1.0	0.0	marker	opened-hand	Open	10	0418
-66348.98999999999	-52579.755	-102168.45	-17709.885	0.0	0.0	0.0	0.0	0.0	0.0	0.0	0.0	0.0	0.0	0.0	0.0	0.0	0.0	146.27586206896555	0.0	0.01879878	-0.09851049	1.0119603	4.01338	-0.06104	-0.47306	3185317.0	1776544760.434365	0.0	1.0	-1.0	-1.0	-1.0	-1.0	-1.0	-1.0	-1.0	-1.0	0.0	marker	opened-hand	Open	10	0418
-66630.015	-52607.61	-102603.19499999999	-18087.39	0.0	0.0	0.0	0.0	0.0	0.0	0.0	0.0	0.0	0.0	0.0	0.0	0.0	0.0	146.27586206896555	0.0	0.01879878	-0.09851049	1.0119603	4.01338	-0.06104	-0.47306	3185318.0	1776544760.434388	0.0	1.0	-1.0	-1.0	-1.0	-1.0	-1.0	-1.0	-1.0	-1.0	0.0	marker	opened-hand	Open	10	0418
-66664.26	-52621.74	-102828.23999999999	-18314.19	0.0	0.0	0.0	0.0	0.0	0.0	0.0	0.0	0.0	0.0	0.0	0.0	0.0	0.0	146.27586206896555	0.0	0.01879878	-0.09851049	1.0119603	4.01338	-0.06104	-0.47306	3185319.0	1776544760.434407	0.0	1.0	-1.0	-1.0	-1.0	-1.0	-1.0	-1.0	-1.0	-1.0	0.0	marker	opened-hand	Open	10	0418
-66564.94499999999	-52622.415	-102739.86	-18230.805	0.0	0.0	0.0	0.0	0.0	0.0	0.0	0.0	0.0	0.0	0.0	0.0	0.0	0.0	146.27586206896555	0.0	0.01879878	-0.09851049	1.0119603	4.01338	-0.06104	-0.47306	3185320.0	1776544760.43443	0.0	1.0	-1.0	-1.0	-1.0	-1.0	-1.0	-1.0	-1.0	-1.0	0.0	marker	opened-hand	Open	10	0418
-66310.245	-52603.335	-102422.97	-17899.469999999998	0.0	0.0	0.0	0.0	0.0	0.0	0.0	0.0	0.0	0.0	0.0	0.0	0.0	0.0	146.27586206896555	0.0	0.01879878	-0.09851049	1.0119603	4.01338	-0.06104	-0.47306	3185321.0	1776544760.434448	0.0	1.0	-1.0	-1.0	-1.0	-1.0	-1.0	-1.0	-1.0	-1.0	0.0	marker	opened-hand	Open	10	0418
-66067.47	-52577.865	-102133.89	-17600.625	0.0	0.0	0.0	0.0	0.0	0.0	0.0	0.0	0.0	0.0	0.0	0.0	0.0	0.0	146.27586206896555	0.0	0.01879878	-0.09851049	1.0119603	4.01338	-0.06104	-0.47306	3185322.0	1776544760.434469	0.0	1.0	-1.0	-1.0	-1.0	-1.0	-1.0	-1.0	-1.0	-1.0	0.0	marker	opened-hand	Open	10	0418
-65993.48999999999	-52569.405	-102056.4	-17558.37	0.0	0.0	0.0	0.0	0.0	0.0	0.0	0.0	0.0	0.0	0.0	0.0	0.0	0.0	146.27586206896555	0.0	0.01879878	-0.09851049	1.0119603	4.01338	-0.06104	-0.47306	3185323.0	1776544760.434486	0.0	1.0	-1.0	-1.0	-1.0	-1.0	-1.0	-1.0	-1.0	-1.0	0.0	marker	opened-hand	Open	10	0418
-66531.105	-52606.53	-102480.93	-17980.559999999998	0.0	0.0	0.0	0.0	0.0	0.0	0.0	0.0	0.0	0.0	0.0	0.0	0.0	0.0	146.27586206896555	0.0	0.021301215000000002	-0.094299075	1.012265475	2.7010199999999998	0.4578	-0.82404	3185324.0	1776544760.434508	0.0	1.0	-1.0	-1.0	-1.0	-1.0	-1.0	-1.0	-1.0	-1.0	0.0	marker	opened-hand	Open	10	0418
-66789.0	-52629.165	-102729.28499999999	-18248.445	0.0	0.0	0.0	0.0	0.0	0.0	0.0	0.0	0.0	0.0	0.0	0.0	0.0	0.0	146.27586206896555	0.0	0.021301215000000002	-0.094299075	1.012265475	2.7010199999999998	0.4578	-0.82404	3185325.0	1776544760.434527	0.0	1.0	-1.0	-1.0	-1.0	-1.0	-1.0	-1.0	-1.0	-1.0	0.0	marker	opened-hand	Open	10	0418
-66568.95	-52614.27	-102612.465	-18099.405	0.0	0.0	0.0	0.0	0.0	0.0	0.0	0.0	0.0	0.0	0.0	0.0	0.0	0.0	146.27586206896555	0.0	0.021301215000000002	-0.094299075	1.012265475	2.7010199999999998	0.4578	-0.82404	3185326.0	1776544760.434548	0.0	1.0	-1.0	-1.0	-1.0	-1.0	-1.0	-1.0	-1.0	-1.0	0.0	marker	opened-hand	Open	10	0418
-66551.625	-52615.259999999995	-102580.92	-18067.68	0.0	0.0	0.0	0.0	0.0	0.0	0.0	0.0	0.0	0.0	0.0	0.0	0.0	0.0	146.27586206896555	0.0	0.021301215000000002	-0.094299075	1.012265475	2.7010199999999998	0.4578	-0.82404	3185327.0	1776544760.434565	0.0	1.0	-1.0	-1.0	-1.0	-1.0	-1.0	-1.0	-1.0	-1.0	0.0	marker	opened-hand	Open	10	0418
-66485.79	-52614.945	-102483.855	-17988.434999999998	0.0	0.0	0.0	0.0	0.0	0.0	0.0	0.0	0.0	0.0	0.0	0.0	0.0	0.0	146.27586206896555	0.0	0.021301215000000002	-0.094299075	1.012265475	2.7010199999999998	0.4578	-0.82404	3185328.0	1776544760.434585	0.0	1.0	-1.0	-1.0	-1.0	-1.0	-1.0	-1.0	-1.0	-1.0	0.0	marker	opened-hand	Open	10	0418
-66453.795	-52616.07	-102385.34999999999	-17894.835	0.0	0.0	0.0	0.0	0.0	0.0	0.0	0.0	0.0	0.0	0.0	0.0	0.0	0.0	146.27586206896555	0.0	0.021301215000000002	-0.094299075	1.012265475	2.7010199999999998	0.4578	-0.82404	3185329.0	1776544760.434602	0.0	1.0	-1.0	-1.0	-1.0	-1.0	-1.0	-1.0	-1.0	-1.0	0.0	marker	opened-hand	Open	10	0418
-66396.78	-52612.11	-102361.995	-17897.85	0.0	0.0	0.0	0.0	0.0	0.0	0.0	0.0	0.0	0.0	0.0	0.0	0.0	0.0	146.27586206896555	0.0	0.021301215000000002	-0.094299075	1.012265475	2.7010199999999998	0.4578	-0.82404	3185330.0	1776544760.434622	0.0	1.0	-1.0	-1.0	-1.0	-1.0	-1.0	-1.0	-1.0	-1.0	0.0	marker	opened-hand	Open	10	0418
-66514.995	-52621.829999999994	-102601.39499999999	-18113.399999999998	0.0	0.0	0.0	0.0	0.0	0.0	0.0	0.0	0.0	0.0	0.0	0.0	0.0	0.0	146.27586206896555	0.0	0.021301215000000002	-0.094299075	1.012265475	2.7010199999999998	0.4578	-0.82404	3185331.0	1776544760.43464	0.0	1.0	-1.0	-1.0	-1.0	-1.0	-1.0	-1.0	-1.0	-1.0	0.0	marker	opened-hand	Open	10	0418
-66638.88	-52632.36	-102618.765	-18111.105	0.0	0.0	0.0	0.0	0.0	0.0	0.0	0.0	0.0	0.0	0.0	0.0	0.0	0.0	146.27586206896555	0.0	0.021301215000000002	-0.094299075	1.012265475	2.7010199999999998	0.4578	-0.82404	3185332.0	1776544760.434667	0.0	1.0	-1.0	-1.0	-1.0	-1.0	-1.0	-1.0	-1.0	-1.0	0.0	marker	opened-hand	Open	10	0418
-66562.73999999999	-52631.055	-102454.875	-17972.64	0.0	0.0	0.0	0.0	0.0	0.0	0.0	0.0	0.0	0.0	0.0	0.0	0.0	0.0	146.27586206896555	0.0	0.021301215000000002	-0.094299075	1.012265475	2.7010199999999998	0.4578	-0.82404	3185333.0	1776544760.434685	0.0	1.0	-1.0	-1.0	-1.0	-1.0	-1.0	-1.0	-1.0	-1.0	0.0	marker	opened-hand	Open	10	0418
-66450.59999999999	-52633.35	-102493.08	-17997.165	0.0	0.0	0.0	0.0	0.0	0.0	0.0	0.0	0.0	0.0	0.0	0.0	0.0	0.0	146.27586206896555	0.0	0.02246088	-0.093688725	1.015805505	3.6624	0.24416	-0.71722	3185334.0	1776544760.434705	0.0	1.0	-1.0	-1.0	-1.0	-1.0	-1.0	-1.0	-1.0	-1.0	0.0	marker	opened-hand	Open	10	0418
-66449.565	-52630.829999999994	-102417.84	-17917.515	0.0	0.0	0.0	0.0	0.0	0.0	0.0	0.0	0.0	0.0	0.0	0.0	0.0	0.0	146.27586206896555	0.0	0.02246088	-0.093688725	1.015805505	3.6624	0.24416	-0.71722	3185335.0	1776544760.434723	0.0	1.0	-1.0	-1.0	-1.0	-1.0	-1.0	-1.0	-1.0	-1.0	0.0	marker	opened-hand	Open	10	0418
-66606.255	-52630.875	-102448.8	-17982.405	0.0	0.0	0.0	0.0	0.0	0.0	0.0	0.0	0.0	0.0	0.0	0.0	0.0	0.0	146.27586206896555	0.0	0.02246088	-0.093688725	1.015805505	3.6624	0.24416	-0.71722	3185336.0	1776544760.434743	0.0	1.0	-1.0	-1.0	-1.0	-1.0	-1.0	-1.0	-1.0	-1.0	0.0	marker	opened-hand	Open	10	0418
-66378.87	-52620.165	-102449.655	-17967.329999999998	0.0	0.0	0.0	0.0	0.0	0.0	0.0	0.0	0.0	0.0	0.0	0.0	0.0	0.0	146.27586206896555	0.0	0.02246088	-0.093688725	1.015805505	3.6624	0.24416	-0.71722	3185337.0	1776544760.43476	0.0	1.0	-1.0	-1.0	-1.0	-1.0	-1.0	-1.0	-1.0	-1.0	0.0	marker	opened-hand	Open	10	0418
-66250.08	-52611.75	-102412.62	-17849.16	0.0	0.0	0.0	0.0	0.0	0.0	0.0	0.0	0.0	0.0	0.0	0.0	0.0	0.0	146.27586206896555	0.0	0.02246088	-0.093688725	1.015805505	3.6624	0.24416	-0.71722	3185338.0	1776544760.434781	0.0	1.0	-1.0	-1.0	-1.0	-1.0	-1.0	-1.0	-1.0	-1.0	0.0	marker	opened-hand	Open	10	0418
-66434.175	-52614.045	-102483.315	-17921.88	0.0	0.0	0.0	0.0	0.0	0.0	0.0	0.0	0.0	0.0	0.0	0.0	0.0	0.0	146.27586206896555	0.0	0.02246088	-0.093688725	1.015805505	3.6624	0.24416	-0.71722	3185339.0	1776544760.434798	0.0	1.0	-1.0	-1.0	-1.0	-1.0	-1.0	-1.0	-1.0	-1.0	0.0	marker	opened-hand	Open	10	0418
-66486.33	-52614.045	-102531.555	-18031.184999999998	0.0	0.0	0.0	0.0	0.0	0.0	0.0	0.0	0.0	0.0	0.0	0.0	0.0	0.0	146.27586206896555	0.0	0.02246088	-0.093688725	1.015805505	3.6624	0.24416	-0.71722	3185340.0	1776544760.434818	0.0	1.0	-1.0	-1.0	-1.0	-1.0	-1.0	-1.0	-1.0	-1.0	0.0	marker	opened-hand	Open	10	0418
-66331.935	-52605.585	-102386.34	-17869.094999999998	0.0	0.0	0.0	0.0	0.0	0.0	0.0	0.0	0.0	0.0	0.0	0.0	0.0	0.0	146.27586206896555	0.0	0.02246088	-0.093688725	1.015805505	3.6624	0.24416	-0.71722	3185341.0	1776544760.434835	0.0	1.0	-1.0	-1.0	-1.0	-1.0	-1.0	-1.0	-1.0	-1.0	0.0	marker	opened-hand	Open	10	0418
-66256.605	-52600.905	-102209.89499999999	-17670.195	0.0	0.0	0.0	0.0	0.0	0.0	0.0	0.0	0.0	0.0	0.0	0.0	0.0	0.0	146.27586206896555	0.0	0.02246088	-0.093688725	1.015805505	3.6624	0.24416	-0.71722	3185342.0	1776544760.434857	0.0	1.0	-1.0	-1.0	-1.0	-1.0	-1.0	-1.0	-1.0	-1.0	0.0	marker	opened-hand	Open	10	0418
-66624.435	-52626.24	-102623.22	-18111.059999999998	0.0	0.0	0.0	0.0	0.0	0.0	0.0	0.0	0.0	0.0	0.0	0.0	0.0	0.0	146.27586206896555	0.0	0.02246088	-0.093688725	1.015805505	3.6624	0.24416	-0.71722	3185343.0	1776544760.434873	0.0	1.0	-1.0	-1.0	-1.0	-1.0	-1.0	-1.0	-1.0	-1.0	0.0	marker	opened-hand	Open	10	0418
-66513.42	-52622.865	-102597.345	-18089.055	0.0	0.0	0.0	0.0	0.0	0.0	0.0	0.0	0.0	0.0	0.0	0.0	0.0	0.0	146.27586206896555	0.0	0.020324655	-0.090026625	1.013974455	3.8455199999999996	0.03052	-0.35097999999999996	3185344.0	1776544760.434903	0.0	1.0	-1.0	-1.0	-1.0	-1.0	-1.0	-1.0	-1.0	-1.0	0.0	marker	opened-hand	Open	10	0418
-66514.05	-52623.585	-102566.295	-18075.42	0.0	0.0	0.0	0.0	0.0	0.0	0.0	0.0	0.0	0.0	0.0	0.0	0.0	0.0	146.27586206896555	0.0	0.020324655	-0.090026625	1.013974455	3.8455199999999996	0.03052	-0.35097999999999996	3185345.0	1776544760.43492	0.0	1.0	-1.0	-1.0	-1.0	-1.0	-1.0	-1.0	-1.0	-1.0	0.0	marker	opened-hand	Open	10	0418
-66376.395	-52614.54	-102383.14499999999	-17907.255	0.0	0.0	0.0	0.0	0.0	0.0	0.0	0.0	0.0	0.0	0.0	0.0	0.0	0.0	146.27586206896555	0.0	0.020324655	-0.090026625	1.013974455	3.8455199999999996	0.03052	-0.35097999999999996	3185346.0	1776544760.434939	0.0	1.0	-1.0	-1.0	-1.0	-1.0	-1.0	-1.0	-1.0	-1.0	0.0	marker	opened-hand	Open	10	0418
-66473.19	-52624.305	-102429.405	-17928.27	0.0	0.0	0.0	0.0	0.0	0.0	0.0	0.0	0.0	0.0	0.0	0.0	0.0	0.0	146.27586206896555	0.0	0.020324655	-0.090026625	1.013974455	3.8455199999999996	0.03052	-0.35097999999999996	3185347.0	1776544760.434956	0.0	1.0	-1.0	-1.0	-1.0	-1.0	-1.0	-1.0	-1.0	-1.0	0.0	marker	opened-hand	Open	10	0418
-66385.62	-52628.985	-102467.25	-17975.204999999998	0.0	0.0	0.0	0.0	0.0	0.0	0.0	0.0	0.0	0.0	0.0	0.0	0.0	0.0	146.27586206896555	0.0	0.020324655	-0.090026625	1.013974455	3.8455199999999996	0.03052	-0.35097999999999996	3185348.0	1776544760.434978	0.0	1.0	-1.0	-1.0	-1.0	-1.0	-1.0	-1.0	-1.0	-1.0	0.0	marker	opened-hand	Open	10	0418
-66366.855	-52630.604999999996	-102498.165	-17983.98	0.0	0.0	0.0	0.0	0.0	0.0	0.0	0.0	0.0	0.0	0.0	0.0	0.0	0.0	146.27586206896555	0.0	0.020324655	-0.090026625	1.013974455	3.8455199999999996	0.03052	-0.35097999999999996	3185349.0	1776544760.434995	0.0	1.0	-1.0	-1.0	-1.0	-1.0	-1.0	-1.0	-1.0	-1.0	0.0	marker	opened-hand	Open	10	0418
-66529.125	-52644.465	-102566.51999999999	-18039.015	0.0	0.0	0.0	0.0	0.0	0.0	0.0	0.0	0.0	0.0	0.0	0.0	0.0	0.0	146.27586206896555	0.0	0.020324655	-0.090026625	1.013974455	3.8455199999999996	0.03052	-0.35097999999999996	3185350.0	1776544760.435016	0.0	1.0	-1.0	-1.0	-1.0	-1.0	-1.0	-1.0	-1.0	-1.0	0.0	marker	opened-hand	Open	10	0418
-66609.09	-52659.494999999995	-102563.415	-18029.385	0.0	0.0	0.0	0.0	0.0	0.0	0.0	0.0	0.0	0.0	0.0	0.0	0.0	0.0	146.27586206896555	0.0	0.020324655	-0.090026625	1.013974455	3.8455199999999996	0.03052	-0.35097999999999996	3185351.0	1776544760.435033	0.0	1.0	-1.0	-1.0	-1.0	-1.0	-1.0	-1.0	-1.0	-1.0	0.0	marker	opened-hand	Open	10	0418
-66404.88	-52648.56	-102416.58	-17896.454999999998	0.0	0.0	0.0	0.0	0.0	0.0	0.0	0.0	0.0	0.0	0.0	0.0	0.0	0.0	146.27586206896555	0.0	0.020324655	-0.090026625	1.013974455	3.8455199999999996	0.03052	-0.35097999999999996	3185352.0	1776544760.435052	0.0	1.0	-1.0	-1.0	-1.0	-1.0	-1.0	-1.0	-1.0	-1.0	0.0	marker	opened-hand	Open	10	0418
-66205.34999999999	-52633.619999999995	-102284.235	-17779.95	0.0	0.0	0.0	0.0	0.0	0.0	0.0	0.0	0.0	0.0	0.0	0.0	0.0	0.0	146.27586206896555	0.0	0.020324655	-0.090026625	1.013974455	3.8455199999999996	0.03052	-0.35097999999999996	3185353.0	1776544760.435069	0.0	1.0	-1.0	-1.0	-1.0	-1.0	-1.0	-1.0	-1.0	-1.0	0.0	marker	opened-hand	Open	10	0418
-66292.155	-52629.345	-102279.465	-17784.18	0.0	0.0	0.0	0.0	0.0	0.0	0.0	0.0	0.0	0.0	0.0	0.0	0.0	0.0	146.27586206896555	0.0	0.02026362	-0.08227518	1.012753755	1.4191799999999999	0.36624	0.3815	3185354.0	1776544760.43509	0.0	1.0	-1.0	-1.0	-1.0	-1.0	-1.0	-1.0	-1.0	-1.0	0.0	marker	opened-hand	Open	10	0418
-66535.515	-52636.14	-102505.545	-17992.98	0.0	0.0	0.0	0.0	0.0	0.0	0.0	0.0	0.0	0.0	0.0	0.0	0.0	0.0	146.27586206896555	0.0	0.02026362	-0.08227518	1.012753755	1.4191799999999999	0.36624	0.3815	3185355.0	1776544760.435139	0.0	1.0	-1.0	-1.0	-1.0	-1.0	-1.0	-1.0	-1.0	-1.0	0.0	marker	opened-hand	Open	10	0418
-66716.685	-52640.189999999995	-102671.685	-18149.399999999998	0.0	0.0	0.0	0.0	0.0	0.0	0.0	0.0	0.0	0.0	0.0	0.0	0.0	0.0	146.27586206896555	0.0	0.02026362	-0.08227518	1.012753755	1.4191799999999999	0.36624	0.3815	3185356.0	1776544760.435163	0.0	1.0	-1.0	-1.0	-1.0	-1.0	-1.0	-1.0	-1.0	-1.0	0.0	marker	opened-hand	Open	10	0418
-66607.02	-52640.64	-102588.25499999999	-18093.015	0.0	0.0	0.0	0.0	0.0	0.0	0.0	0.0	0.0	0.0	0.0	0.0	0.0	0.0	146.27586206896555	0.0	0.02026362	-0.08227518	1.012753755	1.4191799999999999	0.36624	0.3815	3185357.0	1776544760.435179	0.0	1.0	-1.0	-1.0	-1.0	-1.0	-1.0	-1.0	-1.0	-1.0	0.0	marker	opened-hand	Open	10	0418
-66524.175	-52646.939999999995	-102587.12999999999	-18084.78	0.0	0.0	0.0	0.0	0.0	0.0	0.0	0.0	0.0	0.0	0.0	0.0	0.0	0.0	146.27586206896555	0.0	0.02026362	-0.08227518	1.012753755	1.4191799999999999	0.36624	0.3815	3185358.0	1776544760.43578	0.0	1.0	-1.0	-1.0	-1.0	-1.0	-1.0	-1.0	-1.0	-1.0	0.0	marker	opened-hand	Open	10	0418
-66258.495	-52633.17	-102363.705	-17855.864999999998	0.0	0.0	0.0	0.0	0.0	0.0	0.0	0.0	0.0	0.0	0.0	0.0	0.0	0.0	146.27586206896555	0.0	0.02026362	-0.08227518	1.012753755	1.4191799999999999	0.36624	0.3815	3185359.0	1776544760.435798	0.0	1.0	-1.0	-1.0	-1.0	-1.0	-1.0	-1.0	-1.0	-1.0	0.0	marker	opened-hand	Open	10	0418
-66212.955	-52615.53	-102185.09999999999	-17686.395	0.0	0.0	0.0	0.0	0.0	0.0	0.0	0.0	0.0	0.0	0.0	0.0	0.0	0.0	146.27586206896555	0.0	0.02026362	-0.08227518	1.012753755	1.4191799999999999	0.36624	0.3815	3185360.0	1776544760.439781	0.0	1.0	-1.0	-1.0	-1.0	-1.0	-1.0	-1.0	-1.0	-1.0	0.0	marker	opened-hand	Open	10	0418
-66368.565	-52606.575	-102209.44499999999	-17727.03	0.0	0.0	0.0	0.0	0.0	0.0	0.0	0.0	0.0	0.0	0.0	0.0	0.0	0.0	146.27586206896555	0.0	0.02026362	-0.08227518	1.012753755	1.4191799999999999	0.36624	0.3815	3185361.0	1776544760.439803	0.0	1.0	-1.0	-1.0	-1.0	-1.0	-1.0	-1.0	-1.0	-1.0	0.0	marker	opened-hand	Open	10	0418
-66326.48999999999	-52587.54	-102312.09	-17807.85	0.0	0.0	0.0	0.0	0.0	0.0	0.0	0.0	0.0	0.0	0.0	0.0	0.0	0.0	146.27586206896555	0.0	0.02026362	-0.08227518	1.012753755	1.4191799999999999	0.36624	0.3815	3185362.0	1776544760.444045	0.0	1.0	-1.0	-1.0	-1.0	-1.0	-1.0	-1.0	-1.0	-1.0	0.0	marker	opened-hand	Open	10	0418
-66546.58499999999	-52597.845	-102620.925	-18062.37	0.0	0.0	0.0	0.0	0.0	0.0	0.0	0.0	0.0	0.0	0.0	0.0	0.0	0.0	146.27586206896555	0.0	0.02026362	-0.08227518	1.012753755	1.4191799999999999	0.36624	0.3815	3185363.0	1776544760.444067	0.0	1.0	-1.0	-1.0	-1.0	-1.0	-1.0	-1.0	-1.0	-1.0	0.0	marker	opened-hand	Open	10	0418
-66670.245	-52605.99	-102751.2	-18241.155	0.0	0.0	0.0	0.0	0.0	0.0	0.0	0.0	0.0	0.0	0.0	0.0	0.0	0.0	146.27586206896555	0.0	0.02038569	-0.09680151000000001	1.013119965	3.03674	0.36624	-1.4191799999999999	3185364.0	1776544760.447952	0.0	1.0	-1.0	-1.0	-1.0	-1.0	-1.0	-1.0	-1.0	-1.0	0.0	marker	opened-hand	Open	10	0418
-66660.03	-52609.68	-102688.69499999999	-18156.78	0.0	0.0	0.0	0.0	0.0	0.0	0.0	0.0	0.0	0.0	0.0	0.0	0.0	0.0	146.27586206896555	0.0	0.02038569	-0.09680151000000001	1.013119965	3.03674	0.36624	-1.4191799999999999	3185365.0	1776544760.447984	0.0	1.0	-1.0	-1.0	-1.0	-1.0	-1.0	-1.0	-1.0	-1.0	0.0	marker	opened-hand	Open	10	0418
-66475.89	-52599.06	-102477.64499999999	-17970.614999999998	0.0	0.0	0.0	0.0	0.0	0.0	0.0	0.0	0.0	0.0	0.0	0.0	0.0	0.0	146.27586206896555	0.0	0.02038569	-0.09680151000000001	1.013119965	3.03674	0.36624	-1.4191799999999999	3185366.0	1776544760.454007	0.0	1.0	-1.0	-1.0	-1.0	-1.0	-1.0	-1.0	-1.0	-1.0	0.0	marker	opened-hand	Open	10	0418
-66267.63	-52591.095	-102293.55	-17772.21	0.0	0.0	0.0	0.0	0.0	0.0	0.0	0.0	0.0	0.0	0.0	0.0	0.0	0.0	146.27586206896555	0.0	0.02038569	-0.09680151000000001	1.013119965	3.03674	0.36624	-1.4191799999999999	3185367.0	1776544760.454028	0.0	1.0	-1.0	-1.0	-1.0	-1.0	-1.0	-1.0	-1.0	-1.0	0.0	marker	opened-hand	Open	10	0418
-66271.72499999999	-52635.645	-102385.44	-17932.32	0.0	0.0	0.0	0.0	0.0	0.0	0.0	0.0	0.0	0.0	0.0	0.0	0.0	0.0	146.27586206896555	0.0	0.02038569	-0.09680151000000001	1.013119965	3.03674	0.36624	-1.4191799999999999	3185368.0	1776544760.456986	0.0	1.0	-1.0	-1.0	-1.0	-1.0	-1.0	-1.0	-1.0	-1.0	0.0	marker	opened-hand	Open	10	0418
-66540.78	-52674.84	-102494.43	-18026.55	0.0	0.0	0.0	0.0	0.0	0.0	0.0	0.0	0.0	0.0	0.0	0.0	0.0	0.0	146.27586206896555	0.0	0.02038569	-0.09680151000000001	1.013119965	3.03674	0.36624	-1.4191799999999999	3185369.0	1776544760.457007	0.0	1.0	-1.0	-1.0	-1.0	-1.0	-1.0	-1.0	-1.0	-1.0	0.0	marker	opened-hand	Open	10	0418
-66675.51	-52674.299999999996	-102543.61499999999	-18054.405	0.0	0.0	0.0	0.0	0.0	0.0	0.0	0.0	0.0	0.0	0.0	0.0	0.0	0.0	146.27586206896555	0.0	0.02038569	-0.09680151000000001	1.013119965	3.03674	0.36624	-1.4191799999999999	3185370.0	1776544760.462427	0.0	1.0	-1.0	-1.0	-1.0	-1.0	-1.0	-1.0	-1.0	-1.0	0.0	marker	opened-hand	Open	10	0418
-66396.33	-52646.354999999996	-102357.495	-17867.969999999998	0.0	0.0	0.0	0.0	0.0	0.0	0.0	0.0	0.0	0.0	0.0	0.0	0.0	0.0	146.27586206896555	0.0	0.02038569	-0.09680151000000001	1.013119965	3.03674	0.36624	-1.4191799999999999	3185371.0	1776544760.462448	0.0	1.0	-1.0	-1.0	-1.0	-1.0	-1.0	-1.0	-1.0	-1.0	0.0	marker	opened-hand	Open	10	0418
-66238.065	-52623.09	-102204.0	-17649.675	0.0	0.0	0.0	0.0	0.0	0.0	0.0	0.0	0.0	0.0	0.0	0.0	0.0	0.0	146.27586206896555	0.0	0.02038569	-0.09680151000000001	1.013119965	3.03674	0.36624	-1.4191799999999999	3185372.0	1776544760.463818	0.0	1.0	-1.0	-1.0	-1.0	-1.0	-1.0	-1.0	-1.0	-1.0	0.0	marker	opened-hand	Open	10	0418
-66403.53	-52632.674999999996	-102496.36499999999	-17950.995	0.0	0.0	0.0	0.0	0.0	0.0	0.0	0.0	0.0	0.0	0.0	0.0	0.0	0.0	146.27586206896555	0.0	0.02038569	-0.09680151000000001	1.013119965	3.03674	0.36624	-1.4191799999999999	3185373.0	1776544760.463837	0.0	1.0	-1.0	-1.0	-1.0	-1.0	-1.0	-1.0	-1.0	-1.0	0.0	marker	opened-hand	Open	10	0418
-66668.22	-52654.365	-102838.185	-18335.835	0.0	0.0	0.0	0.0	0.0	0.0	0.0	0.0	0.0	0.0	0.0	0.0	0.0	0.0	146.27586206896555	0.0	0.01794429	-0.10845919500000001	1.014584805	5.46308	0.6714399999999999	-2.45686	3185374.0	1776544760.467877	0.0	1.0	-1.0	-1.0	-1.0	-1.0	-1.0	-1.0	-1.0	-1.0	0.0	marker	opened-hand	Open	10	0418
-66709.98	-52663.275	-102873.78	-18382.59	0.0	0.0	0.0	0.0	0.0	0.0	0.0	0.0	0.0	0.0	0.0	0.0	0.0	0.0	146.27586206896555	0.0	0.01794429	-0.10845919500000001	1.014584805	5.46308	0.6714399999999999	-2.45686	3185375.0	1776544760.467897	0.0	1.0	-1.0	-1.0	-1.0	-1.0	-1.0	-1.0	-1.0	-1.0	0.0	marker	opened-hand	Open	10	0418
-66559.5	-52662.375	-102662.50499999999	-18151.739999999998	0.0	0.0	0.0	0.0	0.0	0.0	0.0	0.0	0.0	0.0	0.0	0.0	0.0	0.0	146.27586206896555	0.0	0.01794429	-0.10845919500000001	1.014584805	5.46308	0.6714399999999999	-2.45686	3185376.0	1776544760.471835	0.0	1.0	-1.0	-1.0	-1.0	-1.0	-1.0	-1.0	-1.0	-1.0	0.0	marker	opened-hand	Open	10	0418
-66302.73	-52645.454999999994	-102411.26999999999	-17868.105	0.0	0.0	0.0	0.0	0.0	0.0	0.0	0.0	0.0	0.0	0.0	0.0	0.0	0.0	146.27586206896555	0.0	0.01794429	-0.10845919500000001	1.014584805	5.46308	0.6714399999999999	-2.45686	3185377.0	1776544760.471846	0.0	1.0	-1.0	-1.0	-1.0	-1.0	-1.0	-1.0	-1.0	-1.0	0.0	marker	opened-hand	Open	10	0418
-66288.105	-52635.869999999995	-102324.87	-17820.18	0.0	0.0	0.0	0.0	0.0	0.0	0.0	0.0	0.0	0.0	0.0	0.0	0.0	0.0	146.27586206896555	0.0	0.01794429	-0.10845919500000001	1.014584805	5.46308	0.6714399999999999	-2.45686	3185378.0	1776544760.520456	0.0	1.0	-1.0	-1.0	-1.0	-1.0	-1.0	-1.0	-1.0	-1.0	0.0	marker	opened-hand	Open	10	0418
-66463.065	-52642.215	-102475.125	-17971.515	0.0	0.0	0.0	0.0	0.0	0.0	0.0	0.0	0.0	0.0	0.0	0.0	0.0	0.0	146.27586206896555	0.0	0.01794429	-0.10845919500000001	1.014584805	5.46308	0.6714399999999999	-2.45686	3185379.0	1776544760.520502	0.0	1.0	-1.0	-1.0	-1.0	-1.0	-1.0	-1.0	-1.0	-1.0	0.0	marker	opened-hand	Open	10	0418
-66598.29	-52640.729999999996	-102548.43	-18058.5	0.0	0.0	0.0	0.0	0.0	0.0	0.0	0.0	0.0	0.0	0.0	0.0	0.0	0.0	146.27586206896555	0.0	0.01794429	-0.10845919500000001	1.014584805	5.46308	0.6714399999999999	-2.45686	3185380.0	1776544760.520519	0.0	1.0	-1.0	-1.0	-1.0	-1.0	-1.0	-1.0	-1.0	-1.0	0.0	marker	opened-hand	Open	10	0418
-66477.375	-52630.74	-102441.015	-17958.78	0.0	0.0	0.0	0.0	0.0	0.0	0.0	0.0	0.0	0.0	0.0	0.0	0.0	0.0	146.27586206896555	0.0	0.01794429	-0.10845919500000001	1.014584805	5.46308	0.6714399999999999	-2.45686	3185381.0	1776544760.520538	0.0	1.0	-1.0	-1.0	-1.0	-1.0	-1.0	-1.0	-1.0	-1.0	0.0	marker	opened-hand	Open	10	0418
-66294.81	-52620.704999999994	-102262.815	-17760.915	0.0	0.0	0.0	0.0	0.0	0.0	0.0	0.0	0.0	0.0	0.0	0.0	0.0	0.0	146.27586206896555	0.0	0.01794429	-0.10845919500000001	1.014584805	5.46308	0.6714399999999999	-2.45686	3185382.0	1776544760.52055	0.0	1.0	-1.0	-1.0	-1.0	-1.0	-1.0	-1.0	-1.0	-1.0	0.0	marker	opened-hand	Open	10	0418
-66347.595	-52627.994999999995	-102301.29	-17806.905	0.0	0.0	0.0	0.0	0.0	0.0	0.0	0.0	0.0	0.0	0.0	0.0	0.0	0.0	146.27586206896555	0.0	0.01794429	-0.10845919500000001	1.014584805	5.46308	0.6714399999999999	-2.45686	3185383.0	1776544760.520559	0.0	1.0	-1.0	-1.0	-1.0	-1.0	-1.0	-1.0	-1.0	-1.0	0.0	marker	opened-hand	Open	10	0418
-66570.48	-52646.939999999995	-102588.075	-18063.135	0.0	0.0	0.0	0.0	0.0	0.0	0.0	0.0	0.0	0.0	0.0	0.0	0.0	0.0	146.27586206896555	0.0	0.01306149	-0.099303945	1.018857255	5.08158	-0.15259999999999999	-1.89224	3185384.0	1776544760.52057	0.0	1.0	-1.0	-1.0	-1.0	-1.0	-1.0	-1.0	-1.0	-1.0	0.0	marker	opened-hand	Open	10	0418
-66659.13	-52653.015	-102667.815	-18139.094999999998	0.0	0.0	0.0	0.0	0.0	0.0	0.0	0.0	0.0	0.0	0.0	0.0	0.0	0.0	146.27586206896555	0.0	0.01306149	-0.099303945	1.018857255	5.08158	-0.15259999999999999	-1.89224	3185385.0	1776544760.520579	0.0	1.0	-1.0	-1.0	-1.0	-1.0	-1.0	-1.0	-1.0	-1.0	0.0	marker	opened-hand	Open	10	0418
-66403.215	-52628.13	-102446.055	-17942.579999999998	0.0	0.0	0.0	0.0	0.0	0.0	0.0	0.0	0.0	0.0	0.0	0.0	0.0	0.0	146.27586206896555	0.0	0.01306149	-0.099303945	1.018857255	5.08158	-0.15259999999999999	-1.89224	3185386.0	1776544760.52059	0.0	1.0	-1.0	-1.0	-1.0	-1.0	-1.0	-1.0	-1.0	-1.0	0.0	marker	opened-hand	Open	10	0418
-66391.515	-52620.165	-102340.70999999999	-17851.094999999998	0.0	0.0	0.0	0.0	0.0	0.0	0.0	0.0	0.0	0.0	0.0	0.0	0.0	0.0	146.27586206896555	0.0	0.01306149	-0.099303945	1.018857255	5.08158	-0.15259999999999999	-1.89224	3185387.0	1776544760.520598	0.0	1.0	-1.0	-1.0	-1.0	-1.0	-1.0	-1.0	-1.0	-1.0	0.0	marker	opened-hand	Open	10	0418
-66506.13	-52629.255	-102360.69	-17897.94	0.0	0.0	0.0	0.0	0.0	0.0	0.0	0.0	0.0	0.0	0.0	0.0	0.0	0.0	146.27586206896555	0.0	0.01306149	-0.099303945	1.018857255	5.08158	-0.15259999999999999	-1.89224	3185388.0	1776544760.520609	0.0	1.0	-1.0	-1.0	-1.0	-1.0	-1.0	-1.0	-1.0	-1.0	0.0	marker	opened-hand	Open	10	0418
-66602.205	-52633.935	-102432.69	-17964.719999999998	0.0	0.0	0.0	0.0	0.0	0.0	0.0	0.0	0.0	0.0	0.0	0.0	0.0	0.0	146.27586206896555	0.0	0.01306149	-0.099303945	1.018857255	5.08158	-0.15259999999999999	-1.89224	3185389.0	1776544760.520617	0.0	1.0	-1.0	-1.0	-1.0	-1.0	-1.0	-1.0	-1.0	-1.0	0.0	marker	opened-hand	Open	10	0418
-66470.67	-52632.585	-102529.08	-17982.0	0.0	0.0	0.0	0.0	0.0	0.0	0.0	0.0	0.0	0.0	0.0	0.0	0.0	0.0	146.27586206896555	0.0	0.01306149	-0.099303945	1.018857255	5.08158	-0.15259999999999999	-1.89224	3185390.0	1776544760.520645	0.0	1.0	-1.0	-1.0	-1.0	-1.0	-1.0	-1.0	-1.0	-1.0	0.0	marker	opened-hand	Open	10	0418
-66403.215	-52637.759999999995	-102596.48999999999	-17995.77	0.0	0.0	0.0	0.0	0.0	0.0	0.0	0.0	0.0	0.0	0.0	0.0	0.0	0.0	146.27586206896555	0.0	0.01306149	-0.099303945	1.018857255	5.08158	-0.15259999999999999	-1.89224	3185391.0	1776544760.520653	0.0	1.0	-1.0	-1.0	-1.0	-1.0	-1.0	-1.0	-1.0	-1.0	0.0	marker	opened-hand	Open	10	0418
-66393.675	-52645.86	-102487.95	-17923.274999999998	0.0	0.0	0.0	0.0	0.0	0.0	0.0	0.0	0.0	0.0	0.0	0.0	0.0	0.0	146.27586206896555	0.0	0.01306149	-0.099303945	1.018857255	5.08158	-0.15259999999999999	-1.89224	3185392.0	1776544760.520675	0.0	1.0	-1.0	-1.0	-1.0	-1.0	-1.0	-1.0	-1.0	-1.0	0.0	marker	opened-hand	Open	10	0418
-66573.27	-52666.695	-102624.885	-18072.585	0.0	0.0	0.0	0.0	0.0	0.0	0.0	0.0	0.0	0.0	0.0	0.0	0.0	0.0	146.27586206896555	0.0	0.01306149	-0.099303945	1.018857255	5.08158	-0.15259999999999999	-1.89224	3185393.0	1776544760.520684	0.0	1.0	-1.0	-1.0	-1.0	-1.0	-1.0	-1.0	-1.0	-1.0	0.0	marker	opened-hand	Open	10	0418
-66616.38	-52658.009999999995	-102562.78499999999	-18048.51	0.0	0.0	0.0	0.0	0.0	0.0	0.0	0.0	0.0	0.0	0.0	0.0	0.0	0.0	146.27586206896555	0.0	0.01745601	-0.082214145	1.014096525	2.1669199999999997	0.28994	0.47306	3185394.0	1776544760.520694	0.0	1.0	-1.0	-1.0	-1.0	-1.0	-1.0	-1.0	-1.0	-1.0	0.0	marker	opened-hand	Open	10	0418
-66237.97499999999	-52625.384999999995	-102133.75499999999	-17630.145	0.0	0.0	0.0	0.0	0.0	0.0	0.0	0.0	0.0	0.0	0.0	0.0	0.0	0.0	146.27586206896555	0.0	0.01745601	-0.082214145	1.014096525	2.1669199999999997	0.28994	0.47306	3185395.0	1776544760.520702	0.0	1.0	-1.0	-1.0	-1.0	-1.0	-1.0	-1.0	-1.0	-1.0	0.0	marker	opened-hand	Open	10	0418
-66168.45	-52621.784999999996	-102210.75	-17672.13	0.0	0.0	0.0	0.0	0.0	0.0	0.0	0.0	0.0	0.0	0.0	0.0	0.0	0.0	146.27586206896555	0.0	0.01745601	-0.082214145	1.014096525	2.1669199999999997	0.28994	0.47306	3185396.0	1776544760.520713	0.0	1.0	-1.0	-1.0	-1.0	-1.0	-1.0	-1.0	-1.0	-1.0	0.0	marker	opened-hand	Open	10	0418
-66504.645	-52637.805	-102611.87999999999	-18091.395	0.0	0.0	0.0	0.0	0.0	0.0	0.0	0.0	0.0	0.0	0.0	0.0	0.0	0.0	146.27586206896555	0.0	0.01745601	-0.082214145	1.014096525	2.1669199999999997	0.28994	0.47306	3185397.0	1776544760.520721	0.0	1.0	-1.0	-1.0	-1.0	-1.0	-1.0	-1.0	-1.0	-1.0	0.0	marker	opened-hand	Open	10	0418
-66497.265	-52634.295	-102567.19499999999	-18063.0	0.0	0.0	0.0	0.0	0.0	0.0	0.0	0.0	0.0	0.0	0.0	0.0	0.0	0.0	146.27586206896555	0.0	0.01745601	-0.082214145	1.014096525	2.1669199999999997	0.28994	0.47306	3185398.0	1776544760.520731	0.0	1.0	-1.0	-1.0	-1.0	-1.0	-1.0	-1.0	-1.0	-1.0	0.0	marker	opened-hand	Open	10	0418
-66285.405	-52622.28	-102415.95	-17923.14	0.0	0.0	0.0	0.0	0.0	0.0	0.0	0.0	0.0	0.0	0.0	0.0	0.0	0.0	146.27586206896555	0.0	0.01745601	-0.082214145	1.014096525	2.1669199999999997	0.28994	0.47306	3185399.0	1776544760.520739	0.0	1.0	-1.0	-1.0	-1.0	-1.0	-1.0	-1.0	-1.0	-1.0	0.0	marker	opened-hand	Open	10	0418
-66310.92	-52627.905	-102398.715	-17877.69	0.0	0.0	0.0	0.0	0.0	0.0	0.0	0.0	0.0	0.0	0.0	0.0	0.0	0.0	146.27586206896555	0.0	0.01745601	-0.082214145	1.014096525	2.1669199999999997	0.28994	0.47306	3185400.0	1776544760.523129	0.0	1.0	-1.0	-1.0	-1.0	-1.0	-1.0	-1.0	-1.0	-1.0	0.0	marker	opened-hand	Open	10	0418
-66340.89	-52631.28	-102258.495	-17775.18	0.0	0.0	0.0	0.0	0.0	0.0	0.0	0.0	0.0	0.0	0.0	0.0	0.0	0.0	146.27586206896555	0.0	0.01745601	-0.082214145	1.014096525	2.1669199999999997	0.28994	0.47306	3185401.0	1776544760.523157	0.0	1.0	-1.0	-1.0	-1.0	-1.0	-1.0	-1.0	-1.0	-1.0	0.0	marker	opened-hand	Open	10	0418
-66410.64	-52646.354999999996	-102286.89	-17851.5	0.0	0.0	0.0	0.0	0.0	0.0	0.0	0.0	0.0	0.0	0.0	0.0	0.0	0.0	146.27586206896555	0.0	0.01745601	-0.082214145	1.014096525	2.1669199999999997	0.28994	0.47306	3185402.0	1776544760.524449	0.0	1.0	-1.0	-1.0	-1.0	-1.0	-1.0	-1.0	-1.0	-1.0	0.0	marker	opened-hand	Open	10	0418
-66484.8	-52665.345	-102574.39499999999	-18043.425	0.0	0.0	0.0	0.0	0.0	0.0	0.0	0.0	0.0	0.0	0.0	0.0	0.0	0.0	146.27586206896555	0.0	0.01745601	-0.082214145	1.014096525	2.1669199999999997	0.28994	0.47306	3185403.0	1776544760.524478	0.0	1.0	-1.0	-1.0	-1.0	-1.0	-1.0	-1.0	-1.0	-1.0	0.0	marker	opened-hand	Open	10	0418
-66700.305	-52680.689999999995	-102876.65999999999	-18294.75	0.0	0.0	0.0	0.0	0.0	0.0	0.0	0.0	0.0	0.0	0.0	0.0	0.0	0.0	146.27586206896555	0.0	0.02819817	-0.07263165	1.006894395	0.41202	1.05294	-0.09156	3185404.0	1776544760.528029	0.0	1.0	-1.0	-1.0	-1.0	-1.0	-1.0	-1.0	-1.0	-1.0	0.0	marker	opened-hand	Open	10	0418
-66550.31999999999	-52654.049999999996	-102662.055	-18117.09	0.0	0.0	0.0	0.0	0.0	0.0	0.0	0.0	0.0	0.0	0.0	0.0	0.0	0.0	146.27586206896555	0.0	0.02819817	-0.07263165	1.006894395	0.41202	1.05294	-0.09156	3185405.0	1776544760.528053	0.0	1.0	-1.0	-1.0	-1.0	-1.0	-1.0	-1.0	-1.0	-1.0	0.0	marker	opened-hand	Open	10	0418
-66488.76	-52632.494999999995	-102541.31999999999	-18012.915	0.0	0.0	0.0	0.0	0.0	0.0	0.0	0.0	0.0	0.0	0.0	0.0	0.0	0.0	146.27586206896555	0.0	0.02819817	-0.07263165	1.006894395	0.41202	1.05294	-0.09156	3185406.0	1776544760.532007	0.0	1.0	-1.0	-1.0	-1.0	-1.0	-1.0	-1.0	-1.0	-1.0	0.0	marker	opened-hand	Open	10	0418
-66294.09	-52620.075	-102343.23	-17820.09	0.0	0.0	0.0	0.0	0.0	0.0	0.0	0.0	0.0	0.0	0.0	0.0	0.0	0.0	146.27586206896555	0.0	0.02819817	-0.07263165	1.006894395	0.41202	1.05294	-0.09156	3185407.0	1776544760.532028	0.0	1.0	-1.0	-1.0	-1.0	-1.0	-1.0	-1.0	-1.0	-1.0	0.0	marker	opened-hand	Open	10	0418
-66276.18	-52629.299999999996	-102279.28499999999	-17784.495	0.0	0.0	0.0	0.0	0.0	0.0	0.0	0.0	0.0	0.0	0.0	0.0	0.0	0.0	146.27586206896555	0.0	0.02819817	-0.07263165	1.006894395	0.41202	1.05294	-0.09156	3185408.0	1776544760.536086	0.0	1.0	-1.0	-1.0	-1.0	-1.0	-1.0	-1.0	-1.0	-1.0	0.0	marker	opened-hand	Open	10	0418
-66623.84999999999	-52660.17	-102606.795	-18132.12	0.0	0.0	0.0	0.0	0.0	0.0	0.0	0.0	0.0	0.0	0.0	0.0	0.0	0.0	146.27586206896555	0.0	0.02819817	-0.07263165	1.006894395	0.41202	1.05294	-0.09156	3185409.0	1776544760.536107	0.0	1.0	-1.0	-1.0	-1.0	-1.0	-1.0	-1.0	-1.0	-1.0	0.0	marker	opened-hand	Open	10	0418
-66631.995	-52663.905	-102596.67	-18127.035	0.0	0.0	0.0	0.0	0.0	0.0	0.0	0.0	0.0	0.0	0.0	0.0	0.0	0.0	146.27586206896555	0.0	0.02819817	-0.07263165	1.006894395	0.41202	1.05294	-0.09156	3185410.0	1776544760.540042	0.0	1.0	-1.0	-1.0	-1.0	-1.0	-1.0	-1.0	-1.0	-1.0	0.0	marker	opened-hand	Open	10	0418
-66528.22499999999	-52654.994999999995	-102533.12999999999	-18041.895	0.0	0.0	0.0	0.0	0.0	0.0	0.0	0.0	0.0	0.0	0.0	0.0	0.0	0.0	146.27586206896555	0.0	0.02819817	-0.07263165	1.006894395	0.41202	1.05294	-0.09156	3185411.0	1776544760.540053	0.0	1.0	-1.0	-1.0	-1.0	-1.0	-1.0	-1.0	-1.0	-1.0	0.0	marker	opened-hand	Open	10	0418
-66473.86499999999	-52645.59	-102515.985	-17970.48	0.0	0.0	0.0	0.0	0.0	0.0	0.0	0.0	0.0	0.0	0.0	0.0	0.0	0.0	146.27586206896555	0.0	0.02819817	-0.07263165	1.006894395	0.41202	1.05294	-0.09156	3185412.0	1776544760.545614	0.0	1.0	-1.0	-1.0	-1.0	-1.0	-1.0	-1.0	-1.0	-1.0	0.0	marker	opened-hand	Open	10	0418
-66561.705	-52642.439999999995	-102593.11499999999	-18018.09	0.0	0.0	0.0	0.0	0.0	0.0	0.0	0.0	0.0	0.0	0.0	0.0	0.0	0.0	146.27586206896555	0.0	0.02819817	-0.07263165	1.006894395	0.41202	1.05294	-0.09156	3185413.0	1776544760.545626	0.0	1.0	-1.0	-1.0	-1.0	-1.0	-1.0	-1.0	-1.0	-1.0	0.0	marker	opened-hand	Open	10	0418
-66509.505	-52638.21	-102550.68	-18033.48	0.0	0.0	0.0	0.0	0.0	0.0	0.0	0.0	0.0	0.0	0.0	0.0	0.0	0.0	146.27586206896555	0.0	0.027099540000000002	-0.089904555	1.006039905	1.8006799999999998	1.5412599999999999	-0.763	3185414.0	1776544760.690721	0.0	1.0	-1.0	-1.0	-1.0	-1.0	-1.0	-1.0	-1.0	-1.0	0.0	marker	opened-hand	Open	10	0418
-66344.44499999999	-52629.345	-102356.19	-17860.545	0.0	0.0	0.0	0.0	0.0	0.0	0.0	0.0	0.0	0.0	0.0	0.0	0.0	0.0	146.27586206896555	0.0	0.027099540000000002	-0.089904555	1.006039905	1.8006799999999998	1.5412599999999999	-0.763	3185415.0	1776544760.690754	0.0	1.0	-1.0	-1.0	-1.0	-1.0	-1.0	-1.0	-1.0	-1.0	0.0	marker	opened-hand	Open	10	0418
-66287.06999999999	-52642.034999999996	-102274.83	-17755.695	0.0	0.0	0.0	0.0	0.0	0.0	0.0	0.0	0.0	0.0	0.0	0.0	0.0	0.0	146.27586206896555	0.0	0.027099540000000002	-0.089904555	1.006039905	1.8006799999999998	1.5412599999999999	-0.763	3185416.0	1776544760.690789	0.0	1.0	-1.0	-1.0	-1.0	-1.0	-1.0	-1.0	-1.0	-1.0	0.0	marker	opened-hand	Open	10	0418
-66405.375	-52658.145	-102407.08499999999	-17848.079999999998	0.0	0.0	0.0	0.0	0.0	0.0	0.0	0.0	0.0	0.0	0.0	0.0	0.0	0.0	146.27586206896555	0.0	0.027099540000000002	-0.089904555	1.006039905	1.8006799999999998	1.5412599999999999	-0.763	3185417.0	1776544760.690803	0.0	1.0	-1.0	-1.0	-1.0	-1.0	-1.0	-1.0	-1.0	-1.0	0.0	marker	opened-hand	Open	10	0418
-66475.98	-52675.38	-102482.28	-17937.765	0.0	0.0	0.0	0.0	0.0	0.0	0.0	0.0	0.0	0.0	0.0	0.0	0.0	0.0	146.27586206896555	0.0	0.027099540000000002	-0.089904555	1.006039905	1.8006799999999998	1.5412599999999999	-0.763	3185418.0	1776544760.69082	0.0	1.0	-1.0	-1.0	-1.0	-1.0	-1.0	-1.0	-1.0	-1.0	0.0	marker	opened-hand	Open	10	0418
-66367.215	-52677.314999999995	-102419.19	-17911.215	0.0	0.0	0.0	0.0	0.0	0.0	0.0	0.0	0.0	0.0	0.0	0.0	0.0	0.0	146.27586206896555	0.0	0.027099540000000002	-0.089904555	1.006039905	1.8006799999999998	1.5412599999999999	-0.763	3185419.0	1776544760.690833	0.0	1.0	-1.0	-1.0	-1.0	-1.0	-1.0	-1.0	-1.0	-1.0	0.0	marker	opened-hand	Open	10	0418
-66381.39	-52657.829999999994	-102382.47	-17864.594999999998	0.0	0.0	0.0	0.0	0.0	0.0	0.0	0.0	0.0	0.0	0.0	0.0	0.0	0.0	146.27586206896555	0.0	0.027099540000000002	-0.089904555	1.006039905	1.8006799999999998	1.5412599999999999	-0.763	3185420.0	1776544760.690849	0.0	1.0	-1.0	-1.0	-1.0	-1.0	-1.0	-1.0	-1.0	-1.0	0.0	marker	opened-hand	Open	10	0418
-66621.645	-52656.615	-102605.58	-18068.265	0.0	0.0	0.0	0.0	0.0	0.0	0.0	0.0	0.0	0.0	0.0	0.0	0.0	0.0	146.27586206896555	0.0	0.027099540000000002	-0.089904555	1.006039905	1.8006799999999998	1.5412599999999999	-0.763	3185421.0	1776544760.690864	0.0	1.0	-1.0	-1.0	-1.0	-1.0	-1.0	-1.0	-1.0	-1.0	0.0	marker	opened-hand	Open	10	0418
-66572.45999999999	-52665.299999999996	-102657.19499999999	-18119.61	0.0	0.0	0.0	0.0	0.0	0.0	0.0	0.0	0.0	0.0	0.0	0.0	0.0	0.0	146.27586206896555	0.0	0.027099540000000002	-0.089904555	1.006039905	1.8006799999999998	1.5412599999999999	-0.763	3185422.0	1776544760.69088	0.0	1.0	-1.0	-1.0	-1.0	-1.0	-1.0	-1.0	-1.0	-1.0	0.0	marker	opened-hand	Open	10	0418
-66281.805	-52655.49	-102405.51	-17893.53	0.0	0.0	0.0	0.0	0.0	0.0	0.0	0.0	0.0	0.0	0.0	0.0	0.0	0.0	146.27586206896555	0.0	0.027099540000000002	-0.089904555	1.006039905	1.8006799999999998	1.5412599999999999	-0.763	3185423.0	1776544760.690893	0.0	1.0	-1.0	-1.0	-1.0	-1.0	-1.0	-1.0	-1.0	-1.0	0.0	marker	opened-hand	Open	10	0418
-66479.44499999999	-52673.534999999996	-102485.745	-18020.925	0.0	0.0	0.0	0.0	0.0	0.0	0.0	0.0	0.0	0.0	0.0	0.0	0.0	0.0	146.27586206896555	0.0	0.0183105	-0.098205315	1.013242035	2.65524	1.38866	-0.39676	3185424.0	1776544760.69091	0.0	1.0	-1.0	-1.0	-1.0	-1.0	-1.0	-1.0	-1.0	-1.0	0.0	marker	opened-hand	Open	10	0418
-66499.965	-52681.229999999996	-102432.64499999999	-17986.77	0.0	0.0	0.0	0.0	0.0	0.0	0.0	0.0	0.0	0.0	0.0	0.0	0.0	0.0	146.27586206896555	0.0	0.0183105	-0.098205315	1.013242035	2.65524	1.38866	-0.39676	3185425.0	1776544760.690923	0.0	1.0	-1.0	-1.0	-1.0	-1.0	-1.0	-1.0	-1.0	-1.0	0.0	marker	opened-hand	Open	10	0418
-66446.415	-52682.4	-102449.295	-17928.315	0.0	0.0	0.0	0.0	0.0	0.0	0.0	0.0	0.0	0.0	0.0	0.0	0.0	0.0	146.27586206896555	0.0	0.0183105	-0.098205315	1.013242035	2.65524	1.38866	-0.39676	3185426.0	1776544760.690939	0.0	1.0	-1.0	-1.0	-1.0	-1.0	-1.0	-1.0	-1.0	-1.0	0.0	marker	opened-hand	Open	10	0418
-66345.165	-52677.27	-102367.215	-17840.385	0.0	0.0	0.0	0.0	0.0	0.0	0.0	0.0	0.0	0.0	0.0	0.0	0.0	0.0	146.27586206896555	0.0	0.0183105	-0.098205315	1.013242035	2.65524	1.38866	-0.39676	3185427.0	1776544760.690951	0.0	1.0	-1.0	-1.0	-1.0	-1.0	-1.0	-1.0	-1.0	-1.0	0.0	marker	opened-hand	Open	10	0418
-66435.93	-52684.829999999994	-102374.86499999999	-17878.59	0.0	0.0	0.0	0.0	0.0	0.0	0.0	0.0	0.0	0.0	0.0	0.0	0.0	0.0	146.27586206896555	0.0	0.0183105	-0.098205315	1.013242035	2.65524	1.38866	-0.39676	3185428.0	1776544760.690968	0.0	1.0	-1.0	-1.0	-1.0	-1.0	-1.0	-1.0	-1.0	-1.0	0.0	marker	opened-hand	Open	10	0418
-66533.265	-52689.15	-102557.11499999999	-18017.19	0.0	0.0	0.0	0.0	0.0	0.0	0.0	0.0	0.0	0.0	0.0	0.0	0.0	0.0	146.27586206896555	0.0	0.0183105	-0.098205315	1.013242035	2.65524	1.38866	-0.39676	3185429.0	1776544760.690981	0.0	1.0	-1.0	-1.0	-1.0	-1.0	-1.0	-1.0	-1.0	-1.0	0.0	marker	opened-hand	Open	10	0418
-66455.64	-52685.28	-102649.76999999999	-18115.02	0.0	0.0	0.0	0.0	0.0	0.0	0.0	0.0	0.0	0.0	0.0	0.0	0.0	0.0	146.27586206896555	0.0	0.0183105	-0.098205315	1.013242035	2.65524	1.38866	-0.39676	3185430.0	1776544760.690999	0.0	1.0	-1.0	-1.0	-1.0	-1.0	-1.0	-1.0	-1.0	-1.0	0.0	marker	opened-hand	Open	10	0418
-66407.805	-52681.095	-102600.315	-18071.594999999998	0.0	0.0	0.0	0.0	0.0	0.0	0.0	0.0	0.0	0.0	0.0	0.0	0.0	0.0	146.27586206896555	0.0	0.0183105	-0.098205315	1.013242035	2.65524	1.38866	-0.39676	3185431.0	1776544760.691011	0.0	1.0	-1.0	-1.0	-1.0	-1.0	-1.0	-1.0	-1.0	-1.0	0.0	marker	opened-hand	Open	10	0418
-66472.155	-52689.195	-102528.72	-18024.704999999998	0.0	0.0	0.0	0.0	0.0	0.0	0.0	0.0	0.0	0.0	0.0	0.0	0.0	0.0	146.27586206896555	0.0	0.0183105	-0.098205315	1.013242035	2.65524	1.38866	-0.39676	3185432.0	1776544760.691027	0.0	1.0	-1.0	-1.0	-1.0	-1.0	-1.0	-1.0	-1.0	-1.0	0.0	marker	opened-hand	Open	10	0418
-66523.23	-52692.075	-102496.545	-17997.255	0.0	0.0	0.0	0.0	0.0	0.0	0.0	0.0	0.0	0.0	0.0	0.0	0.0	0.0	146.27586206896555	0.0	0.0183105	-0.098205315	1.013242035	2.65524	1.38866	-0.39676	3185433.0	1776544760.691041	0.0	1.0	-1.0	-1.0	-1.0	-1.0	-1.0	-1.0	-1.0	-1.0	0.0	marker	opened-hand	Open	10	0418
-66599.505	-52688.564999999995	-102521.51999999999	-17966.43	0.0	0.0	0.0	0.0	0.0	0.0	0.0	0.0	0.0	0.0	0.0	0.0	0.0	0.0	146.27586206896555	0.0	0.016662555	-0.104797095	1.016904135	4.959499999999999	0.88508	-2.0295799999999997	3185434.0	1776544760.691058	0.0	1.0	-1.0	-1.0	-1.0	-1.0	-1.0	-1.0	-1.0	-1.0	0.0	marker	opened-hand	Open	10	0418
-66546.765	-52687.439999999995	-102484.53	-17947.395	0.0	0.0	0.0	0.0	0.0	0.0	0.0	0.0	0.0	0.0	0.0	0.0	0.0	0.0	146.27586206896555	0.0	0.016662555	-0.104797095	1.016904135	4.959499999999999	0.88508	-2.0295799999999997	3185435.0	1776544760.691071	0.0	1.0	-1.0	-1.0	-1.0	-1.0	-1.0	-1.0	-1.0	-1.0	0.0	marker	opened-hand	Open	10	0418
-66312.495	-52679.52	-102327.705	-17830.62	0.0	0.0	0.0	0.0	0.0	0.0	0.0	0.0	0.0	0.0	0.0	0.0	0.0	0.0	146.27586206896555	0.0	0.016662555	-0.104797095	1.016904135	4.959499999999999	0.88508	-2.0295799999999997	3185436.0	1776544760.691086	0.0	1.0	-1.0	-1.0	-1.0	-1.0	-1.0	-1.0	-1.0	-1.0	0.0	marker	opened-hand	Open	10	0418
-66299.265	-52668.494999999995	-102287.745	-17774.37	0.0	0.0	0.0	0.0	0.0	0.0	0.0	0.0	0.0	0.0	0.0	0.0	0.0	0.0	146.27586206896555	0.0	0.016662555	-0.104797095	1.016904135	4.959499999999999	0.88508	-2.0295799999999997	3185437.0	1776544760.691099	0.0	1.0	-1.0	-1.0	-1.0	-1.0	-1.0	-1.0	-1.0	-1.0	0.0	marker	opened-hand	Open	10	0418
-66387.42	-52660.979999999996	-102397.31999999999	-17868.78	0.0	0.0	0.0	0.0	0.0	0.0	0.0	0.0	0.0	0.0	0.0	0.0	0.0	0.0	146.27586206896555	0.0	0.016662555	-0.104797095	1.016904135	4.959499999999999	0.88508	-2.0295799999999997	3185438.0	1776544760.691114	0.0	1.0	-1.0	-1.0	-1.0	-1.0	-1.0	-1.0	-1.0	-1.0	0.0	marker	opened-hand	Open	10	0418
-66604.815	-52670.204999999994	-102653.14499999999	-18136.844999999998	0.0	0.0	0.0	0.0	0.0	0.0	0.0	0.0	0.0	0.0	0.0	0.0	0.0	0.0	146.27586206896555	0.0	0.016662555	-0.104797095	1.016904135	4.959499999999999	0.88508	-2.0295799999999997	3185439.0	1776544760.691126	0.0	1.0	-1.0	-1.0	-1.0	-1.0	-1.0	-1.0	-1.0	-1.0	0.0	marker	opened-hand	Open	10	0418
-66561.56999999999	-52676.145	-102651.48	-18169.155	0.0	0.0	0.0	0.0	0.0	0.0	0.0	0.0	0.0	0.0	0.0	0.0	0.0	0.0	146.27586206896555	0.0	0.016662555	-0.104797095	1.016904135	4.959499999999999	0.88508	-2.0295799999999997	3185440.0	1776544760.691142	0.0	1.0	-1.0	-1.0	-1.0	-1.0	-1.0	-1.0	-1.0	-1.0	0.0	marker	opened-hand	Open	10	0418
-66414.33	-52669.439999999995	-102439.03499999999	-17983.125	0.0	0.0	0.0	0.0	0.0	0.0	0.0	0.0	0.0	0.0	0.0	0.0	0.0	0.0	146.27586206896555	0.0	0.016662555	-0.104797095	1.016904135	4.959499999999999	0.88508	-2.0295799999999997	3185441.0	1776544760.691155	0.0	1.0	-1.0	-1.0	-1.0	-1.0	-1.0	-1.0	-1.0	-1.0	0.0	marker	opened-hand	Open	10	0418
-66303.36	-52663.365	-102300.48	-17854.02	0.0	0.0	0.0	0.0	0.0	0.0	0.0	0.0	0.0	0.0	0.0	0.0	0.0	0.0	146.27586206896555	0.0	0.016662555	-0.104797095	1.016904135	4.959499999999999	0.88508	-2.0295799999999997	3185442.0	1776544760.691172	0.0	1.0	-1.0	-1.0	-1.0	-1.0	-1.0	-1.0	-1.0	-1.0	0.0	marker	opened-hand	Open	10	0418
-66384.315	-52661.97	-102295.75499999999	-17753.535	0.0	0.0	0.0	0.0	0.0	0.0	0.0	0.0	0.0	0.0	0.0	0.0	0.0	0.0	146.27586206896555	0.0	0.016662555	-0.104797095	1.016904135	4.959499999999999	0.88508	-2.0295799999999997	3185443.0	1776544760.691185	0.0	1.0	-1.0	-1.0	-1.0	-1.0	-1.0	-1.0	-1.0	-1.0	0.0	marker	opened-hand	Open	10	0418
-66376.62	-52652.744999999995	-102339.765	-17742.69	0.0	0.0	0.0	0.0	0.0	0.0	0.0	0.0	0.0	0.0	0.0	0.0	0.0	0.0	146.27586206896555	0.0	0.01879878	-0.087707295	1.019711745	3.00622	0.56462	-0.13734	3185444.0	1776544760.691201	0.0	1.0	-1.0	-1.0	-1.0	-1.0	-1.0	-1.0	-1.0	-1.0	0.0	marker	opened-hand	Open	10	0418
-66416.175	-52645.32	-102447.81	-17861.805	0.0	0.0	0.0	0.0	0.0	0.0	0.0	0.0	0.0	0.0	0.0	0.0	0.0	0.0	146.27586206896555	0.0	0.01879878	-0.087707295	1.019711745	3.00622	0.56462	-0.13734	3185445.0	1776544760.691214	0.0	1.0	-1.0	-1.0	-1.0	-1.0	-1.0	-1.0	-1.0	-1.0	0.0	marker	opened-hand	Open	10	0418
-66638.565	-52653.465	-102704.94	-18165.015	0.0	0.0	0.0	0.0	0.0	0.0	0.0	0.0	0.0	0.0	0.0	0.0	0.0	0.0	146.27586206896555	0.0	0.01879878	-0.087707295	1.019711745	3.00622	0.56462	-0.13734	3185446.0	1776544760.691228	0.0	1.0	-1.0	-1.0	-1.0	-1.0	-1.0	-1.0	-1.0	-1.0	0.0	marker	opened-hand	Open	10	0418
-66671.595	-52643.204999999994	-102740.805	-18232.829999999998	0.0	0.0	0.0	0.0	0.0	0.0	0.0	0.0	0.0	0.0	0.0	0.0	0.0	0.0	146.27586206896555	0.0	0.01879878	-0.087707295	1.019711745	3.00622	0.56462	-0.13734	3185447.0	1776544760.69124	0.0	1.0	-1.0	-1.0	-1.0	-1.0	-1.0	-1.0	-1.0	-1.0	0.0	marker	opened-hand	Open	10	0418
-66510.63	-52624.845	-102633.48	-18128.34	0.0	0.0	0.0	0.0	0.0	0.0	0.0	0.0	0.0	0.0	0.0	0.0	0.0	0.0	146.27586206896555	0.0	0.01879878	-0.087707295	1.019711745	3.00622	0.56462	-0.13734	3185448.0	1776544760.691257	0.0	1.0	-1.0	-1.0	-1.0	-1.0	-1.0	-1.0	-1.0	-1.0	0.0	marker	opened-hand	Open	10	0418
-66526.02	-52631.865	-102572.73	-18030.059999999998	0.0	0.0	0.0	0.0	0.0	0.0	0.0	0.0	0.0	0.0	0.0	0.0	0.0	0.0	146.27586206896555	0.0	0.01879878	-0.087707295	1.019711745	3.00622	0.56462	-0.13734	3185449.0	1776544760.691272	0.0	1.0	-1.0	-1.0	-1.0	-1.0	-1.0	-1.0	-1.0	-1.0	0.0	marker	opened-hand	Open	10	0418
-66518.235	-52643.25	-102507.20999999999	-17968.545	0.0	0.0	0.0	0.0	0.0	0.0	0.0	0.0	0.0	0.0	0.0	0.0	0.0	0.0	146.27586206896555	0.0	0.01879878	-0.087707295	1.019711745	3.00622	0.56462	-0.13734	3185450.0	1776544760.691288	0.0	1.0	-1.0	-1.0	-1.0	-1.0	-1.0	-1.0	-1.0	-1.0	0.0	marker	opened-hand	Open	10	0418
-66352.995	-52645.725	-102331.44	-17802.0	0.0	0.0	0.0	0.0	0.0	0.0	0.0	0.0	0.0	0.0	0.0	0.0	0.0	0.0	146.27586206896555	0.0	0.01879878	-0.087707295	1.019711745	3.00622	0.56462	-0.13734	3185451.0	1776544760.6913	0.0	1.0	-1.0	-1.0	-1.0	-1.0	-1.0	-1.0	-1.0	-1.0	0.0	marker	opened-hand	Open	10	0418
-66332.79	-52651.259999999995	-102327.61499999999	-17818.829999999998	0.0	0.0	0.0	0.0	0.0	0.0	0.0	0.0	0.0	0.0	0.0	0.0	0.0	0.0	146.27586206896555	0.0	0.01879878	-0.087707295	1.019711745	3.00622	0.56462	-0.13734	3185452.0	1776544760.691315	0.0	1.0	-1.0	-1.0	-1.0	-1.0	-1.0	-1.0	-1.0	-1.0	0.0	marker	opened-hand	Open	10	0418
-66257.09999999999	-52634.384999999995	-102251.06999999999	-17754.524999999998	0.0	0.0	0.0	0.0	0.0	0.0	0.0	0.0	0.0	0.0	0.0	0.0	0.0	0.0	146.27586206896555	0.0	0.01879878	-0.087707295	1.019711745	3.00622	0.56462	-0.13734	3185453.0	1776544760.691327	0.0	1.0	-1.0	-1.0	-1.0	-1.0	-1.0	-1.0	-1.0	-1.0	0.0	marker	opened-hand	Open	10	0418
-66448.665	-52627.32	-102429.98999999999	-17896.68	0.0	0.0	0.0	0.0	0.0	0.0	0.0	0.0	0.0	0.0	0.0	0.0	0.0	0.0	146.27586206896555	0.0	0.015685995	-0.07910136	1.02111555	1.49548	-0.03052	0.19838	3185454.0	1776544760.691343	0.0	1.0	-1.0	-1.0	-1.0	-1.0	-1.0	-1.0	-1.0	-1.0	0.0	marker	opened-hand	Open	10	0418
-66470.4	-52624.305	-102593.43	-18077.489999999998	0.0	0.0	0.0	0.0	0.0	0.0	0.0	0.0	0.0	0.0	0.0	0.0	0.0	0.0	146.27586206896555	0.0	0.015685995	-0.07910136	1.02111555	1.49548	-0.03052	0.19838	3185455.0	1776544760.691355	0.0	1.0	-1.0	-1.0	-1.0	-1.0	-1.0	-1.0	-1.0	-1.0	0.0	marker	opened-hand	Open	10	0418
-66402.765	-52613.909999999996	-102530.51999999999	-18038.655	0.0	0.0	0.0	0.0	0.0	0.0	0.0	0.0	0.0	0.0	0.0	0.0	0.0	0.0	146.27586206896555	0.0	0.015685995	-0.07910136	1.02111555	1.49548	-0.03052	0.19838	3185456.0	1776544760.69137	0.0	1.0	-1.0	-1.0	-1.0	-1.0	-1.0	-1.0	-1.0	-1.0	0.0	marker	opened-hand	Open	10	0418
-66547.035	-52622.369999999995	-102502.935	-18004.094999999998	0.0	0.0	0.0	0.0	0.0	0.0	0.0	0.0	0.0	0.0	0.0	0.0	0.0	0.0	146.27586206896555	0.0	0.015685995	-0.07910136	1.02111555	1.49548	-0.03052	0.19838	3185457.0	1776544760.691384	0.0	1.0	-1.0	-1.0	-1.0	-1.0	-1.0	-1.0	-1.0	-1.0	0.0	marker	opened-hand	Open	10	0418
-66516.56999999999	-52628.445	-102429.675	-17902.125	0.0	0.0	0.0	0.0	0.0	0.0	0.0	0.0	0.0	0.0	0.0	0.0	0.0	0.0	146.27586206896555	0.0	0.015685995	-0.07910136	1.02111555	1.49548	-0.03052	0.19838	3185458.0	1776544760.6914	0.0	1.0	-1.0	-1.0	-1.0	-1.0	-1.0	-1.0	-1.0	-1.0	0.0	marker	opened-hand	Open	10	0418
-66379.095	-52625.204999999994	-102408.65999999999	-17880.075	0.0	0.0	0.0	0.0	0.0	0.0	0.0	0.0	0.0	0.0	0.0	0.0	0.0	0.0	146.27586206896555	0.0	0.015685995	-0.07910136	1.02111555	1.49548	-0.03052	0.19838	3185459.0	1776544760.691413	0.0	1.0	-1.0	-1.0	-1.0	-1.0	-1.0	-1.0	-1.0	-1.0	0.0	marker	opened-hand	Open	10	0418
-66306.285	-52594.244999999995	-102390.12	-17888.579999999998	0.0	0.0	0.0	0.0	0.0	0.0	0.0	0.0	0.0	0.0	0.0	0.0	0.0	0.0	146.27586206896555	0.0	0.015685995	-0.07910136	1.02111555	1.49548	-0.03052	0.19838	3185460.0	1776544760.691428	0.0	1.0	-1.0	-1.0	-1.0	-1.0	-1.0	-1.0	-1.0	-1.0	0.0	marker	opened-hand	Open	10	0418
-66409.69499999999	-52585.11	-102505.995	-17999.28	0.0	0.0	0.0	0.0	0.0	0.0	0.0	0.0	0.0	0.0	0.0	0.0	0.0	0.0	146.27586206896555	0.0	0.015685995	-0.07910136	1.02111555	1.49548	-0.03052	0.19838	3185461.0	1776544760.69144	0.0	1.0	-1.0	-1.0	-1.0	-1.0	-1.0	-1.0	-1.0	-1.0	0.0	marker	opened-hand	Open	10	0418
-66575.61	-52595.28	-102690.54	-18157.815	0.0	0.0	0.0	0.0	0.0	0.0	0.0	0.0	0.0	0.0	0.0	0.0	0.0	0.0	146.27586206896555	0.0	0.015685995	-0.07910136	1.02111555	1.49548	-0.03052	0.19838	3185462.0	1776544760.691459	0.0	1.0	-1.0	-1.0	-1.0	-1.0	-1.0	-1.0	-1.0	-1.0	0.0	marker	opened-hand	Open	10	0418
-66540.015	-52585.829999999994	-102668.04	-18139.95	0.0	0.0	0.0	0.0	0.0	0.0	0.0	0.0	0.0	0.0	0.0	0.0	0.0	0.0	146.27586206896555	0.0	0.015685995	-0.07910136	1.02111555	1.49548	-0.03052	0.19838	3185463.0	1776544760.691472	0.0	1.0	-1.0	-1.0	-1.0	-1.0	-1.0	-1.0	-1.0	-1.0	0.0	marker	opened-hand	Open	10	0418
-66433.545	-52576.965	-102537.22499999999	-18027.54	0.0	0.0	0.0	0.0	0.0	0.0	0.0	0.0	0.0	0.0	0.0	0.0	0.0	0.0	146.27586206896555	0.0	0.020080515	-0.088439715	1.01672103	2.39582	0.04578	0.0	3185464.0	1776544760.691487	0.0	1.0	-1.0	-1.0	-1.0	-1.0	-1.0	-1.0	-1.0	-1.0	0.0	marker	opened-hand	Open	10	0418
-66372.39	-52567.875	-102387.33	-17861.04	0.0	0.0	0.0	0.0	0.0	0.0	0.0	0.0	0.0	0.0	0.0	0.0	0.0	0.0	146.27586206896555	0.0	0.020080515	-0.088439715	1.01672103	2.39582	0.04578	0.0	3185465.0	1776544760.691503	0.0	1.0	-1.0	-1.0	-1.0	-1.0	-1.0	-1.0	-1.0	-1.0	0.0	marker	opened-hand	Open	10	0418
-66499.73999999999	-52584.03	-102451.31999999999	-17910.0	0.0	0.0	0.0	0.0	0.0	0.0	0.0	0.0	0.0	0.0	0.0	0.0	0.0	0.0	146.27586206896555	0.0	0.020080515	-0.088439715	1.01672103	2.39582	0.04578	0.0	3185466.0	1776544760.691521	0.0	1.0	-1.0	-1.0	-1.0	-1.0	-1.0	-1.0	-1.0	-1.0	0.0	marker	opened-hand	Open	10	0418
-66527.595	-52596.0	-102475.26	-17945.684999999998	0.0	0.0	0.0	0.0	0.0	0.0	0.0	0.0	0.0	0.0	0.0	0.0	0.0	0.0	146.27586206896555	0.0	0.020080515	-0.088439715	1.01672103	2.39582	0.04578	0.0	3185467.0	1776544760.691533	0.0	1.0	-1.0	-1.0	-1.0	-1.0	-1.0	-1.0	-1.0	-1.0	0.0	marker	opened-hand	Open	10	0418
-66393.315	-52586.64	-102396.69	-17872.515	0.0	0.0	0.0	0.0	0.0	0.0	0.0	0.0	0.0	0.0	0.0	0.0	0.0	0.0	146.27586206896555	0.0	0.020080515	-0.088439715	1.01672103	2.39582	0.04578	0.0	3185468.0	1776544760.691548	0.0	1.0	-1.0	-1.0	-1.0	-1.0	-1.0	-1.0	-1.0	-1.0	0.0	marker	opened-hand	Open	10	0418
-66315.285	-52566.345	-102295.62	-17773.92	0.0	0.0	0.0	0.0	0.0	0.0	0.0	0.0	0.0	0.0	0.0	0.0	0.0	0.0	146.27586206896555	0.0	0.020080515	-0.088439715	1.01672103	2.39582	0.04578	0.0	3185469.0	1776544760.69156	0.0	1.0	-1.0	-1.0	-1.0	-1.0	-1.0	-1.0	-1.0	-1.0	0.0	marker	opened-hand	Open	10	0418
-66356.505	-52548.479999999996	-102404.565	-17900.145	0.0	0.0	0.0	0.0	0.0	0.0	0.0	0.0	0.0	0.0	0.0	0.0	0.0	0.0	146.27586206896555	0.0	0.020080515	-0.088439715	1.01672103	2.39582	0.04578	0.0	3185470.0	1776544760.691576	0.0	1.0	-1.0	-1.0	-1.0	-1.0	-1.0	-1.0	-1.0	-1.0	0.0	marker	opened-hand	Open	10	0418
-66608.91	-52552.259999999995	-102634.47	-18134.415	0.0	0.0	0.0	0.0	0.0	0.0	0.0	0.0	0.0	0.0	0.0	0.0	0.0	0.0	146.27586206896555	0.0	0.020080515	-0.088439715	1.01672103	2.39582	0.04578	0.0	3185471.0	1776544760.691589	0.0	1.0	-1.0	-1.0	-1.0	-1.0	-1.0	-1.0	-1.0	-1.0	0.0	marker	opened-hand	Open	10	0418
-66593.16	-52551.27	-102532.23	-18011.52	0.0	0.0	0.0	0.0	0.0	0.0	0.0	0.0	0.0	0.0	0.0	0.0	0.0	0.0	146.27586206896555	0.0	0.020080515	-0.088439715	1.01672103	2.39582	0.04578	0.0	3185472.0	1776544760.691605	0.0	1.0	-1.0	-1.0	-1.0	-1.0	-1.0	-1.0	-1.0	-1.0	0.0	marker	opened-hand	Open	10	0418
-66394.215	-52542.63	-102406.095	-17892.719999999998	0.0	0.0	0.0	0.0	0.0	0.0	0.0	0.0	0.0	0.0	0.0	0.0	0.0	0.0	146.27586206896555	0.0	0.020080515	-0.088439715	1.01672103	2.39582	0.04578	0.0	3185473.0	1776544760.691617	0.0	1.0	-1.0	-1.0	-1.0	-1.0	-1.0	-1.0	-1.0	-1.0	0.0	marker	opened-hand	Open	10	0418
-66466.035	-52550.729999999996	-102468.015	-17933.219999999998	0.0	0.0	0.0	0.0	0.0	0.0	0.0	0.0	0.0	0.0	0.0	0.0	0.0	0.0	146.27586206896555	0.0	0.023010195	-0.09143043000000001	1.010556495	2.2889999999999997	0.97664	-0.2289	3185474.0	1776544760.691632	0.0	1.0	-1.0	-1.0	-1.0	-1.0	-1.0	-1.0	-1.0	-1.0	0.0	marker	opened-hand	Open	10	0418
-66372.255	-52544.204999999994	-102370.905	-17876.43	0.0	0.0	0.0	0.0	0.0	0.0	0.0	0.0	0.0	0.0	0.0	0.0	0.0	0.0	146.27586206896555	0.0	0.023010195	-0.09143043000000001	1.010556495	2.2889999999999997	0.97664	-0.2289	3185475.0	1776544760.691644	0.0	1.0	-1.0	-1.0	-1.0	-1.0	-1.0	-1.0	-1.0	-1.0	0.0	marker	opened-hand	Open	10	0418
-66537.18	-52545.915	-102477.42	-17980.965	0.0	0.0	0.0	0.0	0.0	0.0	0.0	0.0	0.0	0.0	0.0	0.0	0.0	0.0	146.27586206896555	0.0	0.023010195	-0.09143043000000001	1.010556495	2.2889999999999997	0.97664	-0.2289	3185476.0	1776544760.691661	0.0	1.0	-1.0	-1.0	-1.0	-1.0	-1.0	-1.0	-1.0	-1.0	0.0	marker	opened-hand	Open	10	0418
-66598.33499999999	-52540.47	-102630.915	-18124.469999999998	0.0	0.0	0.0	0.0	0.0	0.0	0.0	0.0	0.0	0.0	0.0	0.0	0.0	0.0	146.27586206896555	0.0	0.023010195	-0.09143043000000001	1.010556495	2.2889999999999997	0.97664	-0.2289	3185477.0	1776544760.691673	0.0	1.0	-1.0	-1.0	-1.0	-1.0	-1.0	-1.0	-1.0	-1.0	0.0	marker	opened-hand	Open	10	0418
-66598.33499999999	-52540.47	-102630.915	-18124.469999999998	0.0	0.0	0.0	0.0	0.0	0.0	0.0	0.0	0.0	0.0	0.0	0.0	0.0	0.0	146.27586206896555	0.0	0.023010195	-0.09143043000000001	1.010556495	2.2889999999999997	0.97664	-0.2289	3185478.0	1776544760.691689	0.0	1.0	-1.0	-1.0	-1.0	-1.0	-1.0	-1.0	-1.0	-1.0	0.0	marker	opened-hand	Open	10	0418
-66598.33499999999	-52540.47	-102630.915	-18124.469999999998	0.0	0.0	0.0	0.0	0.0	0.0	0.0	0.0	0.0	0.0	0.0	0.0	0.0	0.0	146.27586206896555	0.0	0.023010195	-0.09143043000000001	1.010556495	2.2889999999999997	0.97664	-0.2289	3185479.0	1776544760.691701	0.0	1.0	-1.0	-1.0	-1.0	-1.0	-1.0	-1.0	-1.0	-1.0	0.0	marker	opened-hand	Open	10	0418
-66598.33499999999	-52540.47	-102630.915	-18124.469999999998	0.0	0.0	0.0	0.0	0.0	0.0	0.0	0.0	0.0	0.0	0.0	0.0	0.0	0.0	146.27586206896555	0.0	0.023010195	-0.09143043000000001	1.010556495	2.2889999999999997	0.97664	-0.2289	3185480.0	1776544760.691711	0.0	1.0	-1.0	-1.0	-1.0	-1.0	-1.0	-1.0	-1.0	-1.0	0.0	marker	opened-hand	Open	10	0418
-66598.33499999999	-52540.47	-102630.915	-18124.469999999998	0.0	0.0	0.0	0.0	0.0	0.0	0.0	0.0	0.0	0.0	0.0	0.0	0.0	0.0	146.27586206896555	0.0	0.023010195	-0.09143043000000001	1.010556495	2.2889999999999997	0.97664	-0.2289	3185481.0	1776544760.691721	0.0	1.0	-1.0	-1.0	-1.0	-1.0	-1.0	-1.0	-1.0	-1.0	0.0	marker	opened-hand	Open	10	0418
-66598.33499999999	-52540.47	-102630.915	-18124.469999999998	0.0	0.0	0.0	0.0	0.0	0.0	0.0	0.0	0.0	0.0	0.0	0.0	0.0	0.0	146.27586206896555	0.0	0.023010195	-0.09143043000000001	1.010556495	2.2889999999999997	0.97664	-0.2289	3185482.0	1776544760.691731	0.0	1.0	-1.0	-1.0	-1.0	-1.0	-1.0	-1.0	-1.0	-1.0	0.0	marker	opened-hand	Open	10	0418
-66598.33499999999	-52540.47	-102630.915	-18124.469999999998	0.0	0.0	0.0	0.0	0.0	0.0	0.0	0.0	0.0	0.0	0.0	0.0	0.0	0.0	146.27586206896555	0.0	0.023010195	-0.09143043000000001	1.010556495	2.2889999999999997	0.97664	-0.2289	3185483.0	1776544760.691741	0.0	1.0	-1.0	-1.0	-1.0	-1.0	-1.0	-1.0	-1.0	-1.0	0.0	marker	opened-hand	Open	10	0418
-66598.33499999999	-52540.47	-102630.915	-18124.469999999998	0.0	0.0	0.0	0.0	0.0	0.0	0.0	0.0	0.0	0.0	0.0	0.0	0.0	0.0	146.27586206896555	0.0	0.023010195	-0.09143043000000001	1.010556495	2.2889999999999997	0.97664	-0.2289	3185484.0	1776544760.691752	0.0	1.0	-1.0	-1.0	-1.0	-1.0	-1.0	-1.0	-1.0	-1.0	0.0	marker	opened-hand	Open	10	0418
-66598.33499999999	-52540.47	-102630.915	-18124.469999999998	0.0	0.0	0.0	0.0	0.0	0.0	0.0	0.0	0.0	0.0	0.0	0.0	0.0	0.0	146.27586206896555	0.0	0.023010195	-0.09143043000000001	1.010556495	2.2889999999999997	0.97664	-0.2289	3185485.0	1776544760.691761	0.0	1.0	-1.0	-1.0	-1.0	-1.0	-1.0	-1.0	-1.0	-1.0	0.0	marker	opened-hand	Open	10	0418
-66621.285	-52517.295	-102707.775	-18215.28	0.0	0.0	0.0	0.0	0.0	0.0	0.0	0.0	0.0	0.0	0.0	0.0	0.0	0.0	146.27586206896555	0.0	0.01562496	-0.09716772	1.008237165	3.00622	0.9613799999999999	-0.9308599999999999	3185488.0	1776544760.697619	0.0	1.0	-1.0	-1.0	-1.0	-1.0	-1.0	-1.0	-1.0	-1.0	0.0	marker	opened-hand	Open	10	0418
-66596.265	-52522.29	-102649.5	-18173.295	0.0	0.0	0.0	0.0	0.0	0.0	0.0	0.0	0.0	0.0	0.0	0.0	0.0	0.0	146.27586206896555	0.0	0.01562496	-0.09716772	1.008237165	3.00622	0.9613799999999999	-0.9308599999999999	3185489.0	1776544760.697649	0.0	1.0	-1.0	-1.0	-1.0	-1.0	-1.0	-1.0	-1.0	-1.0	0.0	marker	opened-hand	Open	10	0418
-66562.38	-52531.155	-102645.315	-18095.355	0.0	0.0	0.0	0.0	0.0	0.0	0.0	0.0	0.0	0.0	0.0	0.0	0.0	0.0	146.27586206896555	0.0	0.01562496	-0.09716772	1.008237165	3.00622	0.9613799999999999	-0.9308599999999999	3185490.0	1776544760.701702	0.0	1.0	-1.0	-1.0	-1.0	-1.0	-1.0	-1.0	-1.0	-1.0	0.0	marker	opened-hand	Open	10	0418
-66429.315	-52538.445	-102516.795	-17960.895	0.0	0.0	0.0	0.0	0.0	0.0	0.0	0.0	0.0	0.0	0.0	0.0	0.0	0.0	146.27586206896555	0.0	0.01562496	-0.09716772	1.008237165	3.00622	0.9613799999999999	-0.9308599999999999	3185491.0	1776544760.701726	0.0	1.0	-1.0	-1.0	-1.0	-1.0	-1.0	-1.0	-1.0	-1.0	0.0	marker	opened-hand	Open	10	0418
-66433.545	-52546.905	-102404.11499999999	-17889.84	0.0	0.0	0.0	0.0	0.0	0.0	0.0	0.0	0.0	0.0	0.0	0.0	0.0	0.0	146.27586206896555	0.0	0.01562496	-0.09716772	1.008237165	3.00622	0.9613799999999999	-0.9308599999999999	3185492.0	1776544760.737706	0.0	1.0	-1.0	-1.0	-1.0	-1.0	-1.0	-1.0	-1.0	-1.0	0.0	marker	opened-hand	Open	10	0418
-66439.125	-52550.505	-102460.635	-17938.305	0.0	0.0	0.0	0.0	0.0	0.0	0.0	0.0	0.0	0.0	0.0	0.0	0.0	0.0	146.27586206896555	0.0	0.01562496	-0.09716772	1.008237165	3.00622	0.9613799999999999	-0.9308599999999999	3185493.0	1776544760.73774	0.0	1.0	-1.0	-1.0	-1.0	-1.0	-1.0	-1.0	-1.0	-1.0	0.0	marker	opened-hand	Open	10	0418
-66380.355	-52530.93	-102414.59999999999	-17905.23	0.0	0.0	0.0	0.0	0.0	0.0	0.0	0.0	0.0	0.0	0.0	0.0	0.0	0.0	146.27586206896555	0.0	0.017272905	-0.09686254500000001	1.01293686	4.16598	0.8087799999999999	-0.9613799999999999	3185494.0	1776544760.737777	0.0	1.0	-1.0	-1.0	-1.0	-1.0	-1.0	-1.0	-1.0	-1.0	0.0	marker	opened-hand	Open	10	0418
-66444.345	-52528.275	-102407.89499999999	-17873.28	0.0	0.0	0.0	0.0	0.0	0.0	0.0	0.0	0.0	0.0	0.0	0.0	0.0	0.0	146.27586206896555	0.0	0.017272905	-0.09686254500000001	1.01293686	4.16598	0.8087799999999999	-0.9613799999999999	3185495.0	1776544760.737796	0.0	1.0	-1.0	-1.0	-1.0	-1.0	-1.0	-1.0	-1.0	-1.0	0.0	marker	opened-hand	Open	10	0418
-66592.08	-52552.53	-102601.75499999999	-18054.63	0.0	0.0	0.0	0.0	0.0	0.0	0.0	0.0	0.0	0.0	0.0	0.0	0.0	0.0	146.27586206896555	0.0	0.017272905	-0.09686254500000001	1.01293686	4.16598	0.8087799999999999	-0.9613799999999999	3185496.0	1776544760.737821	0.0	1.0	-1.0	-1.0	-1.0	-1.0	-1.0	-1.0	-1.0	-1.0	0.0	marker	opened-hand	Open	10	0418
-66469.23	-52558.424999999996	-102559.76999999999	-18034.965	0.0	0.0	0.0	0.0	0.0	0.0	0.0	0.0	0.0	0.0	0.0	0.0	0.0	0.0	146.27586206896555	0.0	0.017272905	-0.09686254500000001	1.01293686	4.16598	0.8087799999999999	-0.9613799999999999	3185497.0	1776544760.737839	0.0	1.0	-1.0	-1.0	-1.0	-1.0	-1.0	-1.0	-1.0	-1.0	0.0	marker	opened-hand	Open	10	0418
-66349.395	-52556.04	-102474.94499999999	-17939.204999999998	0.0	0.0	0.0	0.0	0.0	0.0	0.0	0.0	0.0	0.0	0.0	0.0	0.0	0.0	146.27586206896555	0.0	0.017272905	-0.09686254500000001	1.01293686	4.16598	0.8087799999999999	-0.9613799999999999	3185498.0	1776544760.737863	0.0	1.0	-1.0	-1.0	-1.0	-1.0	-1.0	-1.0	-1.0	-1.0	0.0	marker	opened-hand	Open	10	0418
-66382.69499999999	-52568.505	-102438.765	-17888.67	0.0	0.0	0.0	0.0	0.0	0.0	0.0	0.0	0.0	0.0	0.0	0.0	0.0	0.0	146.27586206896555	0.0	0.017272905	-0.09686254500000001	1.01293686	4.16598	0.8087799999999999	-0.9613799999999999	3185499.0	1776544760.737881	0.0	1.0	-1.0	-1.0	-1.0	-1.0	-1.0	-1.0	-1.0	-1.0	0.0	marker	opened-hand	Open	10	0418
-66579.20999999999	-52586.28	-102544.605	-18014.805	0.0	0.0	0.0	0.0	0.0	0.0	0.0	0.0	0.0	0.0	0.0	0.0	0.0	0.0	146.27586206896555	0.0	0.017272905	-0.09686254500000001	1.01293686	4.16598	0.8087799999999999	-0.9613799999999999	3185500.0	1776544760.737904	0.0	1.0	-1.0	-1.0	-1.0	-1.0	-1.0	-1.0	-1.0	-1.0	0.0	marker	opened-hand	Open	10	0418
-66552.39	-52589.52	-102564.54	-18057.329999999998	0.0	0.0	0.0	0.0	0.0	0.0	0.0	0.0	0.0	0.0	0.0	0.0	0.0	0.0	146.27586206896555	0.0	0.017272905	-0.09686254500000001	1.01293686	4.16598	0.8087799999999999	-0.9613799999999999	3185501.0	1776544760.737946	0.0	1.0	-1.0	-1.0	-1.0	-1.0	-1.0	-1.0	-1.0	-1.0	0.0	marker	opened-hand	Open	10	0418
-66384.495	-52583.4	-102439.845	-17961.3	0.0	0.0	0.0	0.0	0.0	0.0	0.0	0.0	0.0	0.0	0.0	0.0	0.0	0.0	146.27586206896555	0.0	0.017272905	-0.09686254500000001	1.01293686	4.16598	0.8087799999999999	-0.9613799999999999	3185502.0	1776544760.737974	0.0	1.0	-1.0	-1.0	-1.0	-1.0	-1.0	-1.0	-1.0	-1.0	0.0	marker	opened-hand	Open	10	0418
-66269.295	-52564.454999999994	-102245.58	-17775.315	0.0	0.0	0.0	0.0	0.0	0.0	0.0	0.0	0.0	0.0	0.0	0.0	0.0	0.0	146.27586206896555	0.0	0.017272905	-0.09686254500000001	1.01293686	4.16598	0.8087799999999999	-0.9613799999999999	3185503.0	1776544760.737991	0.0	1.0	-1.0	-1.0	-1.0	-1.0	-1.0	-1.0	-1.0	-1.0	0.0	marker	opened-hand	Open	10	0418
-66253.36499999999	-52558.515	-102215.34	-17675.774999999998	0.0	0.0	0.0	0.0	0.0	0.0	0.0	0.0	0.0	0.0	0.0	0.0	0.0	0.0	146.27586206896555	0.0	0.017394975	-0.08886696	1.01977278	2.77732	0.35097999999999996	0.28994	3185504.0	1776544760.738014	0.0	1.0	-1.0	-1.0	-1.0	-1.0	-1.0	-1.0	-1.0	-1.0	0.0	marker	opened-hand	Open	10	0418
-66449.83499999999	-52578.945	-102460.00499999999	-17890.29	0.0	0.0	0.0	0.0	0.0	0.0	0.0	0.0	0.0	0.0	0.0	0.0	0.0	0.0	146.27586206896555	0.0	0.017394975	-0.08886696	1.01977278	2.77732	0.35097999999999996	0.28994	3185505.0	1776544760.73803	0.0	1.0	-1.0	-1.0	-1.0	-1.0	-1.0	-1.0	-1.0	-1.0	0.0	marker	opened-hand	Open	10	0418
-66470.48999999999	-52590.915	-102494.79	-17994.42	0.0	0.0	0.0	0.0	0.0	0.0	0.0	0.0	0.0	0.0	0.0	0.0	0.0	0.0	146.27586206896555	0.0	0.017394975	-0.08886696	1.01977278	2.77732	0.35097999999999996	0.28994	3185506.0	1776544760.88583	0.0	1.0	-1.0	-1.0	-1.0	-1.0	-1.0	-1.0	-1.0	-1.0	0.0	marker	opened-hand	Open	10	0418
-66615.12	-52609.814999999995	-102605.44499999999	-18106.829999999998	0.0	0.0	0.0	0.0	0.0	0.0	0.0	0.0	0.0	0.0	0.0	0.0	0.0	0.0	146.27586206896555	0.0	0.017394975	-0.08886696	1.01977278	2.77732	0.35097999999999996	0.28994	3185507.0	1776544760.885848	0.0	1.0	-1.0	-1.0	-1.0	-1.0	-1.0	-1.0	-1.0	-1.0	0.0	marker	opened-hand	Open	10	0418
-66534.48	-52625.52	-102544.605	-18070.515	0.0	0.0	0.0	0.0	0.0	0.0	0.0	0.0	0.0	0.0	0.0	0.0	0.0	0.0	146.27586206896555	0.0	0.017394975	-0.08886696	1.01977278	2.77732	0.35097999999999996	0.28994	3185508.0	1776544760.885869	0.0	1.0	-1.0	-1.0	-1.0	-1.0	-1.0	-1.0	-1.0	-1.0	0.0	marker	opened-hand	Open	10	0418
-66476.43	-52622.055	-102493.34999999999	-17965.125	0.0	0.0	0.0	0.0	0.0	0.0	0.0	0.0	0.0	0.0	0.0	0.0	0.0	0.0	146.27586206896555	0.0	0.017394975	-0.08886696	1.01977278	2.77732	0.35097999999999996	0.28994	3185509.0	1776544760.885874	0.0	1.0	-1.0	-1.0	-1.0	-1.0	-1.0	-1.0	-1.0	-1.0	0.0	marker	opened-hand	Open	10	0418
-66380.355	-52609.814999999995	-102454.37999999999	-17913.555	0.0	0.0	0.0	0.0	0.0	0.0	0.0	0.0	0.0	0.0	0.0	0.0	0.0	0.0	146.27586206896555	0.0	0.017394975	-0.08886696	1.01977278	2.77732	0.35097999999999996	0.28994	3185510.0	1776544760.885907	0.0	1.0	-1.0	-1.0	-1.0	-1.0	-1.0	-1.0	-1.0	-1.0	0.0	marker	opened-hand	Open	10	0418
-66294.22499999999	-52600.005	-102328.515	-17788.05	0.0	0.0	0.0	0.0	0.0	0.0	0.0	0.0	0.0	0.0	0.0	0.0	0.0	0.0	146.27586206896555	0.0	0.017394975	-0.08886696	1.01977278	2.77732	0.35097999999999996	0.28994	3185511.0	1776544760.885912	0.0	1.0	-1.0	-1.0	-1.0	-1.0	-1.0	-1.0	-1.0	-1.0	0.0	marker	opened-hand	Open	10	0418
